Frame,Time,RightBicepsbrachiicaputbrevis,LeftBicepsbrachiicaputbrevis,
0,0.000,-0.005785,0.001779,
1,0.001,-0.001014,0.001204,
2,0.002,-0.002828,0.000809,
3,0.003,-0.000103,-0.005617,
4,0.004,0.006468,0.008324,
5,0.005,0.005432,0.010241,
6,0.006,0.006091,0.004589,
7,0.007,-0.004000,0.006210,
8,0.008,-0.000090,0.004629,
9,0.009,0.000935,0.000543,
10,0.010,0.006318,-0.000645,
11,0.011,-0.001104,0.000350,
12,0.012,0.003290,-0.000684,
13,0.013,0.002288,0.000141,
14,0.014,0.004321,-0.000717,
15,0.015,0.002151,-0.001398,
16,0.016,0.007716,0.003475,
17,0.017,0.002338,0.001771,
18,0.018,-0.005528,-0.002264,
19,0.019,0.001623,0.002460,
20,0.020,0.007887,0.006646,
21,0.021,0.003524,0.004929,
22,0.022,-0.000287,0.003403,
23,0.023,-0.002395,0.008429,
24,0.024,0.006957,0.007708,
25,0.025,-0.002740,0.007170,
26,0.026,0.003421,0.007649,
27,0.027,0.002322,0.000909,
28,0.028,0.003261,0.000093,
29,0.029,-0.007080,0.000969,
30,0.030,-0.000165,-0.001185,
31,0.031,0.006005,0.003746,
32,0.032,0.009120,0.004272,
33,0.033,0.006025,0.000265,
34,0.034,0.008644,0.005021,
35,0.035,0.012784,0.005540,
36,0.036,0.004308,-0.000839,
37,0.037,0.001081,0.000060,
38,0.038,0.000093,0.002308,
39,0.039,-0.004421,0.001699,
40,0.040,0.001530,-0.001269,
41,0.041,-0.000627,-0.009944,
42,0.042,0.000103,-0.010995,
43,0.043,0.005865,-0.014043,
44,0.044,-0.002522,-0.012874,
45,0.045,0.003103,-0.000622,
46,0.046,-0.002068,0.004493,
47,0.047,-0.001152,0.003026,
48,0.048,0.003134,-0.000959,
49,0.049,-0.000504,0.002818,
50,0.050,0.000268,-0.000325,
51,0.051,0.003388,-0.005482,
52,0.052,-0.000544,-0.006237,
53,0.053,0.001071,-0.003629,
54,0.054,-0.003876,-0.001376,
55,0.055,-0.003065,-0.006198,
56,0.056,0.003962,-0.003096,
57,0.057,0.004891,-0.002535,
58,0.058,0.005803,-0.007196,
59,0.059,0.006537,0.001125,
60,0.060,0.003066,0.006709,
61,0.061,-0.002574,0.005689,
62,0.062,-0.003140,0.004835,
63,0.063,-0.006557,0.003976,
64,0.064,0.000469,0.001780,
65,0.065,-0.005841,-0.001767,
66,0.066,0.000159,-0.004799,
67,0.067,-0.003464,0.001609,
68,0.068,-0.001362,0.004112,
69,0.069,0.001733,0.001879,
70,0.070,-0.006951,-0.003045,
71,0.071,-0.000620,0.006376,
72,0.072,-0.008294,0.007679,
73,0.073,-0.005170,0.001391,
74,0.074,0.001310,0.000346,
75,0.075,0.000519,-0.004580,
76,0.076,-0.003652,-0.001573,
77,0.077,0.007861,-0.002455,
78,0.078,-0.017389,-0.001645,
79,0.079,0.007988,-0.006898,
80,0.080,0.004776,-0.002018,
81,0.081,-0.010035,-0.005075,
82,0.082,0.009059,-0.001029,
83,0.083,-0.003261,0.003675,
84,0.084,-0.009804,0.005316,
85,0.085,0.004400,-0.001124,
86,0.086,-0.012288,-0.005357,
87,0.087,-0.005673,-0.012282,
88,0.088,-0.007687,-0.003847,
89,0.089,-0.002106,0.001690,
90,0.090,-0.007173,-0.001389,
91,0.091,0.003442,-0.009846,
92,0.092,-0.000652,-0.004292,
93,0.093,0.000498,0.002920,
94,0.094,0.003661,0.003715,
95,0.095,0.004613,-0.000544,
96,0.096,0.000012,0.001624,
97,0.097,-0.000878,-0.000409,
98,0.098,-0.007826,0.001268,
99,0.099,-0.003294,0.010015,
100,0.100,-0.016131,0.006261,
101,0.101,0.004261,0.007229,
102,0.102,0.001487,0.004149,
103,0.103,-0.000940,0.006814,
104,0.104,0.001193,0.009294,
105,0.105,0.003149,0.002336,
106,0.106,0.004920,0.001466,
107,0.107,0.009906,-0.002762,
108,0.108,0.005254,-0.006474,
109,0.109,0.006519,-0.000059,
110,0.110,0.002724,0.004149,
111,0.111,-0.000562,0.006332,
112,0.112,0.002401,0.001422,
113,0.113,0.005020,0.008321,
114,0.114,0.005767,0.009128,
115,0.115,0.005010,0.008242,
116,0.116,0.008467,0.004497,
117,0.117,0.004160,0.005144,
118,0.118,-0.004675,0.010857,
119,0.119,0.001517,-0.000633,
120,0.120,-0.001736,-0.009058,
121,0.121,0.001240,-0.004483,
122,0.122,-0.005207,-0.000431,
123,0.123,-0.001036,0.005821,
124,0.124,0.001117,0.002600,
125,0.125,-0.002472,0.001585,
126,0.126,-0.000818,-0.006879,
127,0.127,-0.003733,-0.007894,
128,0.128,-0.001238,-0.010934,
129,0.129,-0.000096,-0.010077,
130,0.130,0.002729,-0.015993,
131,0.131,0.005277,-0.016666,
132,0.132,0.002003,-0.008876,
133,0.133,-0.004428,-0.009871,
134,0.134,0.001983,-0.001392,
135,0.135,-0.000593,0.006420,
136,0.136,0.001599,0.003411,
137,0.137,-0.006193,0.002598,
138,0.138,-0.000953,0.003467,
139,0.139,0.001748,0.004175,
140,0.140,0.004312,0.003539,
141,0.141,-0.000931,0.005282,
142,0.142,0.001121,-0.003473,
143,0.143,-0.000559,0.000298,
144,0.144,-0.004609,0.003572,
145,0.145,0.001158,-0.005836,
146,0.146,-0.001023,-0.002057,
147,0.147,0.002542,-0.005210,
148,0.148,-0.000484,-0.002108,
149,0.149,0.002394,0.004385,
150,0.150,0.003919,0.003599,
151,0.151,0.001716,0.001457,
152,0.152,-0.000291,0.007942,
153,0.153,-0.003829,0.005455,
154,0.154,0.003135,0.007697,
155,0.155,-0.008333,0.004183,
156,0.156,0.002361,0.009967,
157,0.157,0.001029,0.004755,
158,0.158,-0.000131,0.002757,
159,0.159,0.005456,-0.002973,
160,0.160,0.000220,0.002302,
161,0.161,-0.002481,0.003009,
162,0.162,0.001755,0.001345,
163,0.163,-0.001958,0.003055,
164,0.164,-0.003990,0.000528,
165,0.165,0.001761,0.002728,
166,0.166,-0.001960,-0.002012,
167,0.167,0.002932,-0.003703,
168,0.168,-0.004012,0.005093,
169,0.169,0.004437,0.006292,
170,0.170,-0.005890,0.009504,
171,0.171,0.003746,0.004244,
172,0.172,0.000022,-0.000339,
173,0.173,-0.000989,-0.004581,
174,0.174,0.000029,-0.002399,
175,0.175,0.000877,-0.001757,
176,0.176,0.008982,-0.004497,
177,0.177,-0.003889,-0.006249,
178,0.178,0.016572,-0.002244,
179,0.179,-0.024545,0.002438,
180,0.180,0.016380,-0.001841,
181,0.181,-0.010186,-0.004764,
182,0.182,-0.005449,-0.002263,
183,0.183,0.007736,-0.006521,
184,0.184,-0.004119,-0.012974,
185,0.185,-0.007685,-0.008750,
186,0.186,-0.004483,-0.003502,
187,0.187,-0.001620,-0.001488,
188,0.188,-0.015337,-0.003202,
189,0.189,0.001899,-0.010841,
190,0.190,-0.004713,-0.005632,
191,0.191,0.001379,-0.004832,
192,0.192,0.003233,-0.005733,
193,0.193,0.001543,-0.007999,
194,0.194,0.000014,-0.004512,
195,0.195,0.001348,-0.004075,
196,0.196,-0.002376,-0.002460,
197,0.197,0.005402,-0.005064,
198,0.198,0.008445,0.001806,
199,0.199,0.005735,0.000722,
200,0.200,-0.000179,-0.000191,
201,0.201,0.003549,0.000577,
202,0.202,-0.007117,0.005726,
203,0.203,-0.008637,0.007671,
204,0.204,-0.007298,0.004535,
205,0.205,0.004032,0.002766,
206,0.206,0.002503,0.000150,
207,0.207,0.009440,0.005149,
208,0.208,0.005718,0.001514,
209,0.209,0.002510,0.003123,
210,0.210,-0.000523,0.003547,
211,0.211,0.000336,0.003975,
212,0.212,0.006258,0.010831,
213,0.213,0.004067,0.011777,
214,0.214,0.000532,0.008989,
215,0.215,0.010010,0.001128,
216,0.216,0.000384,0.000043,
217,0.217,-0.003332,-0.008485,
218,0.218,-0.000103,-0.005338,
219,0.219,-0.003132,-0.000152,
220,0.220,-0.003956,0.002502,
221,0.221,-0.009864,0.001614,
222,0.222,-0.004601,0.005298,
223,0.223,-0.002559,0.011685,
224,0.224,0.006935,0.005718,
225,0.225,0.005605,0.015650,
226,0.226,-0.000631,0.008682,
227,0.227,0.002603,0.004938,
228,0.228,0.003624,0.001698,
229,0.229,0.000949,-0.003560,
230,0.230,-0.003279,-0.008133,
231,0.231,0.000469,-0.007297,
232,0.232,-0.000175,-0.009502,
233,0.233,0.002872,-0.015926,
234,0.234,0.000033,-0.016773,
235,0.235,0.001560,-0.005270,
236,0.236,-0.001482,-0.003561,
237,0.237,0.004119,-0.002018,
238,0.238,0.001952,0.002074,
239,0.239,-0.007379,0.005842,
240,0.240,-0.003565,0.009102,
241,0.241,-0.006504,0.008137,
242,0.242,-0.001278,0.007362,
243,0.243,0.005164,0.008299,
244,0.244,-0.002661,0.004661,
245,0.245,-0.001671,-0.000157,
246,0.246,-0.000824,-0.003113,
247,0.247,-0.001712,0.001032,
248,0.248,-0.005450,0.001626,
249,0.249,-0.003415,0.005940,
250,0.250,0.004848,0.013637,
251,0.251,-0.002994,0.006440,
252,0.252,0.006431,0.005673,
253,0.253,0.002664,-0.003723,
254,0.254,-0.000581,-0.004839,
255,0.255,0.000360,-0.003758,
256,0.256,0.001147,-0.002676,
257,0.257,-0.003137,-0.003464,
258,0.258,-0.003857,-0.004261,
259,0.259,-0.005947,-0.002002,
260,0.260,0.000930,0.000085,
261,0.261,-0.000005,-0.006805,
262,0.262,-0.007858,0.003547,
263,0.263,0.001554,0.002227,
264,0.264,-0.002238,-0.001475,
265,0.265,0.003274,-0.002484,
266,0.266,0.000173,-0.001467,
267,0.267,-0.004475,-0.000614,
268,0.268,-0.002016,-0.001463,
269,0.269,-0.001418,-0.005172,
270,0.270,0.000535,-0.008725,
271,0.271,0.002141,-0.004510,
272,0.272,-0.003191,-0.000473,
273,0.273,-0.003940,0.006256,
274,0.274,-0.002319,-0.002244,
275,0.275,0.002856,-0.005505,
276,0.276,0.003472,-0.000302,
277,0.277,-0.002519,-0.001874,
278,0.278,-0.005642,-0.001082,
279,0.279,0.003090,0.001399,
280,0.280,-0.015913,0.000656,
281,0.281,0.008722,-0.001431,
282,0.282,-0.007742,0.002761,
283,0.283,0.007091,0.002219,
284,0.284,0.004330,-0.002556,
285,0.285,-0.002983,0.001633,
286,0.286,-0.009615,-0.002473,
287,0.287,0.020968,-0.009286,
288,0.288,-0.045204,-0.008500,
289,0.289,-0.149594,-0.004326,
290,0.290,0.058971,-0.012839,
291,0.291,0.029177,-0.020677,
292,0.292,0.056227,-0.011270,
293,0.293,0.031694,-0.007605,
294,0.294,0.009381,-0.004448,
295,0.295,0.029692,0.000734,
296,0.296,0.011276,-0.000177,
297,0.297,-0.005448,0.005676,
298,0.298,0.009806,0.003419,
299,0.299,0.023709,0.006925,
300,0.300,0.011239,0.005183,
301,0.301,-0.000215,0.006838,
302,0.302,-0.010485,0.010343,
303,0.303,0.017984,0.006062,
304,0.304,0.009409,0.001943,
305,0.305,0.001682,0.004433,
306,0.306,-0.005366,0.010482,
307,0.307,0.001116,-0.002410,
308,0.308,-0.004572,-0.000574,
309,0.309,0.011395,0.004475,
310,0.310,-0.002915,0.009027,
311,0.311,-0.007243,0.007655,
312,0.312,-0.003272,0.011356,
313,0.313,-0.006744,0.012356,
314,0.314,-0.009860,0.005067,
315,0.315,-0.000965,-0.001368,
316,0.316,-0.003579,-0.000525,
317,0.317,-0.001120,-0.008975,
318,0.318,-0.003221,0.001358,
319,0.319,0.002956,0.008317,
320,0.320,0.001181,0.009520,
321,0.321,-0.003796,0.015117,
322,0.322,-0.002170,0.014131,
323,0.323,0.001984,0.007730,
324,0.324,-0.004193,0.003531,
325,0.325,-0.000884,-0.000164,
326,0.326,0.006488,-0.002154,
327,0.327,-0.001888,-0.005152,
328,0.328,-0.007388,-0.002236,
329,0.329,-0.002064,-0.009960,
330,0.330,-0.002827,-0.020205,
331,0.331,-0.001908,-0.018753,
332,0.332,0.001885,-0.014937,
333,0.333,-0.007325,-0.009257,
334,0.334,-0.006062,0.002342,
335,0.335,-0.002761,0.003955,
336,0.336,-0.001691,0.010978,
337,0.337,-0.008088,0.007340,
338,0.338,-0.008857,0.006409,
339,0.339,0.002653,0.005481,
340,0.340,0.000909,0.008289,
341,0.341,-0.000459,-0.001082,
342,0.342,-0.007279,-0.002169,
343,0.343,-0.003439,-0.001035,
344,0.344,-0.006593,-0.001936,
345,0.345,-0.001317,-0.000974,
346,0.346,-0.002116,-0.003384,
347,0.347,-0.001242,-0.008486,
348,0.348,-0.006494,-0.001914,
349,0.349,0.001285,-0.006007,
350,0.350,0.000277,-0.002149,
351,0.351,0.006693,0.001522,
352,0.352,0.004131,0.002143,
353,0.353,0.001913,-0.002988,
354,0.354,0.003942,-0.002209,
355,0.355,0.006984,-0.001610,
356,0.356,0.000530,-0.005581,
357,0.357,0.001342,-0.000757,
358,0.358,0.000635,-0.002377,
359,0.359,0.005506,0.004116,
360,0.360,-0.000273,0.003333,
361,0.361,-0.002514,0.008623,
362,0.362,-0.006107,0.007990,
363,0.363,-0.005638,0.002279,
364,0.364,0.003109,0.001637,
365,0.365,0.001878,-0.001892,
366,0.366,-0.003754,-0.001362,
367,0.367,0.005680,-0.004221,
368,0.368,0.006829,0.000526,
369,0.369,-0.000993,0.004774,
370,0.370,-0.004070,0.000725,
371,0.371,0.000459,0.006480,
372,0.372,0.006344,0.008686,
373,0.373,-0.000630,0.006647,
374,0.374,-0.001508,-0.001662,
375,0.375,0.007934,-0.000667,
376,0.376,0.001634,0.004551,
377,0.377,0.000593,-0.003929,
378,0.378,0.002242,-0.010054,
379,0.379,-0.003043,-0.022607,
380,0.380,0.010970,-0.014192,
381,0.381,-0.015619,-0.009685,
382,0.382,0.002455,-0.005686,
383,0.383,-0.007377,-0.002020,
384,0.384,0.007470,0.003510,
385,0.385,0.015553,0.004480,
386,0.386,-0.001719,0.001730,
387,0.387,0.004858,0.002546,
388,0.388,-0.001268,-0.002747,
389,0.389,-0.010603,-0.004845,
390,0.390,-0.012308,-0.001868,
391,0.391,-0.007759,-0.007187,
392,0.392,0.004730,0.000508,
393,0.393,0.003014,0.001438,
394,0.394,-0.001581,-0.003203,
395,0.395,-0.005679,-0.012748,
396,0.396,0.005625,-0.009098,
397,0.397,0.007130,-0.005952,
398,0.398,0.003044,-0.005015,
399,0.399,0.001814,0.003362,
400,0.400,0.000774,0.004287,
401,0.401,-0.008729,0.003185,
402,0.402,-0.005033,0.003949,
403,0.403,-0.010646,0.004717,
404,0.404,-0.001211,0.005311,
405,0.405,-0.000054,0.004559,
406,0.406,0.000922,0.003986,
407,0.407,-0.000136,0.006792,
408,0.408,0.002541,0.007227,
409,0.409,0.001654,0.014097,
410,0.410,-0.000574,0.008794,
411,0.411,0.000064,0.006024,
412,0.412,0.005785,0.005121,
413,0.413,0.002015,0.002875,
414,0.414,0.008410,-0.003609,
415,0.415,-0.001089,-0.001122,
416,0.416,-0.002303,-0.003381,
417,0.417,0.000888,-0.004110,
418,0.418,-0.002174,0.001593,
419,0.419,0.000525,0.002220,
420,0.420,-0.003739,-0.001371,
421,0.421,-0.000045,0.002818,
422,0.422,-0.002105,0.001090,
423,0.423,-0.005174,-0.003673,
424,0.424,0.003589,-0.004223,
425,0.425,-0.002710,-0.008315,
426,0.426,0.002843,-0.001582,
427,0.427,-0.000244,-0.000761,
428,0.428,-0.004840,0.000055,
429,0.429,-0.002343,0.005270,
430,0.430,-0.003061,0.007264,
431,0.431,-0.003761,0.005556,
432,0.432,0.004488,0.005040,
433,0.433,0.003429,0.004532,
434,0.434,-0.006047,0.000310,
435,0.435,-0.002359,-0.007283,
436,0.436,0.005424,0.000018,
437,0.437,0.002361,0.008492,
438,0.438,-0.002232,0.002925,
439,0.439,0.000288,0.005983,
440,0.440,0.005508,0.005161,
441,0.441,-0.000929,0.000950,
442,0.442,0.003300,-0.005974,
443,0.443,0.008575,-0.006791,
444,0.444,0.005031,-0.005918,
445,0.445,-0.004448,-0.008102,
446,0.446,0.002490,-0.003174,
447,0.447,0.011297,0.003789,
448,0.448,0.000985,0.006527,
449,0.449,0.002354,0.005716,
450,0.450,0.001180,0.003558,
451,0.451,0.002207,0.000055,
452,0.452,0.003227,0.000603,
453,0.453,-0.003174,-0.003414,
454,0.454,0.004627,-0.006937,
455,0.455,0.001612,-0.004707,
456,0.456,-0.006812,0.001751,
457,0.457,0.001011,-0.002777,
458,0.458,-0.004193,-0.001892,
459,0.459,-0.001446,0.000340,
460,0.460,-0.007333,-0.000298,
461,0.461,0.004198,-0.007203,
462,0.462,-0.004227,-0.002608,
463,0.463,-0.002663,-0.005126,
464,0.464,-0.001275,0.001820,
465,0.465,-0.007488,-0.000878,
466,0.466,-0.004242,-0.001705,
467,0.467,-0.009455,0.003559,
468,0.468,0.004615,0.000018,
469,0.469,-0.001440,-0.000484,
470,0.470,0.004195,0.002404,
471,0.471,0.002535,-0.002323,
472,0.472,0.004111,0.007163,
473,0.473,0.008214,-0.002471,
474,0.474,0.004532,0.001258,
475,0.475,0.007789,0.000246,
476,0.476,-0.001658,0.001257,
477,0.477,0.007181,0.000425,
478,0.478,0.004011,0.002968,
479,0.479,0.000153,0.000089,
480,0.480,-0.002847,0.000754,
481,0.481,0.011232,0.001422,
482,0.482,-0.019343,-0.000287,
483,0.483,0.011479,-0.003178,
484,0.484,-0.008456,-0.005738,
485,0.485,-0.004878,0.001178,
486,0.486,0.004960,0.002167,
487,0.487,-0.003808,0.001305,
488,0.488,-0.001075,-0.004629,
489,0.489,-0.008332,0.002281,
490,0.490,-0.006112,0.004974,
491,0.491,-0.016243,-0.000965,
492,0.492,0.000531,0.001212,
493,0.493,0.007143,0.006106,
494,0.494,0.001079,-0.002196,
495,0.495,0.002962,-0.001197,
496,0.496,0.004655,-0.000195,
497,0.497,-0.002957,-0.001056,
498,0.498,0.001113,-0.000232,
499,0.499,-0.000063,-0.005510,
500,0.500,0.000962,-0.000639,
501,0.501,-0.008518,-0.002366,
502,0.502,-0.002260,0.005221,
503,0.503,-0.001253,0.002149,
504,0.504,-0.002286,0.001292,
505,0.505,-0.005004,-0.006483,
506,0.506,-0.002479,-0.005453,
507,0.507,-0.000304,-0.000873,
508,0.508,0.003228,-0.003410,
509,0.509,0.006242,-0.002727,
510,0.510,0.002158,-0.003398,
511,0.511,0.000610,0.000836,
512,0.512,0.001784,0.003707,
513,0.513,-0.002125,0.001170,
514,0.514,0.001414,-0.003912,
515,0.515,0.001738,-0.004581,
516,0.516,0.004595,0.001169,
517,0.517,-0.001177,0.008109,
518,0.518,-0.008977,0.001682,
519,0.519,0.002516,0.000834,
520,0.520,-0.008159,0.000140,
521,0.521,-0.001235,0.000806,
522,0.522,-0.000058,-0.000907,
523,0.523,0.003159,0.001964,
524,0.524,0.008395,0.003491,
525,0.525,-0.000074,-0.003430,
526,0.526,-0.003295,0.001818,
527,0.527,0.001940,0.006394,
528,0.528,-0.004500,0.012325,
529,0.529,-0.000283,0.007101,
530,0.530,-0.004025,0.007804,
531,0.531,0.006618,0.003588,
532,0.532,0.008137,0.005289,
533,0.533,0.001179,-0.001478,
534,0.534,0.002357,-0.000634,
535,0.535,0.003381,-0.003173,
536,0.536,0.000333,-0.000966,
537,0.537,0.003060,0.002600,
538,0.538,0.000527,-0.005684,
539,0.539,0.002733,-0.002468,
540,0.540,-0.007918,-0.003470,
541,0.541,0.002767,-0.011913,
542,0.542,-0.004156,-0.008689,
543,0.543,-0.005305,-0.003435,
544,0.544,0.002521,-0.004267,
545,0.545,0.005592,0.001659,
546,0.546,0.001061,0.008604,
547,0.547,-0.004830,0.015037,
548,0.548,-0.005479,0.010818,
549,0.549,0.003853,0.007114,
550,0.550,0.000150,-0.002185,
551,0.551,0.003399,-0.000984,
552,0.552,0.004446,-0.011275,
553,0.553,0.003625,-0.020884,
554,0.554,0.001123,-0.019672,
555,0.555,0.003351,-0.009315,
556,0.556,0.004061,-0.002353,
557,0.557,0.007125,-0.003512,
558,0.558,0.003098,-0.000281,
559,0.559,0.000595,0.000753,
560,0.560,-0.003606,0.003489,
561,0.561,-0.001880,0.004361,
562,0.562,-0.004387,0.008114,
563,0.563,-0.001303,0.001716,
564,0.564,-0.001624,0.005976,
565,0.565,0.001966,0.002282,
566,0.566,-0.001059,0.005864,
567,0.567,0.001853,0.005391,
568,0.568,0.002204,0.014225,
569,0.569,0.001196,0.007991,
570,0.570,-0.003857,0.011231,
571,0.571,-0.008757,0.003982,
572,0.572,0.000728,-0.008173,
573,0.573,-0.000603,-0.009840,
574,0.574,-0.001777,-0.002201,
575,0.575,-0.004983,-0.003533,
576,0.576,0.002289,-0.004700,
577,0.577,-0.000417,-0.007895,
578,0.578,0.003819,-0.010920,
579,0.579,-0.001427,-0.000574,
580,0.580,-0.000242,0.003327,
581,0.581,-0.003796,0.007397,
582,0.582,0.005680,0.006222,
583,0.583,-0.015131,0.005216,
584,0.584,-0.000261,0.002176,
585,0.585,-0.008398,-0.000521,
586,0.586,-0.001152,0.003706,
587,0.587,0.001024,0.003037,
588,0.588,-0.001034,-0.000509,
589,0.589,-0.010361,-0.001018,
590,0.590,-0.001932,-0.000512,
591,0.591,-0.003492,0.001011,
592,0.592,-0.004862,0.000671,
593,0.593,0.003908,0.001003,
594,0.594,-0.001704,-0.000861,
595,0.595,0.003518,0.003017,
596,0.596,0.000781,-0.000549,
597,0.597,0.003296,-0.004782,
598,0.598,0.008514,0.001638,
599,0.599,-0.002170,-0.002611,
600,0.600,-0.003727,-0.009574,
601,0.601,0.005890,-0.006902,
602,0.602,-0.000391,-0.004386,
603,0.603,0.002794,-0.009650,
604,0.604,-0.000278,-0.004760,
605,0.605,0.010005,-0.000540,
606,0.606,0.000333,0.007077,
607,0.607,0.001491,0.004052,
608,0.608,0.004681,-0.002356,
609,0.609,-0.002628,0.000201,
610,0.610,-0.001814,-0.000454,
611,0.611,-0.006083,0.001588,
612,0.612,0.005388,-0.001449,
613,0.613,-0.006484,-0.000927,
614,0.614,0.004159,-0.002441,
615,0.615,-0.005507,-0.001244,
616,0.616,0.005812,-0.000054,
617,0.617,0.004274,0.002488,
618,0.618,0.000209,0.000793,
619,0.619,0.003926,0.001118,
620,0.620,0.002895,0.000420,
621,0.621,-0.004393,-0.000271,
622,0.622,0.004048,0.000381,
623,0.623,0.005061,0.002711,
624,0.624,0.004054,0.000987,
625,0.625,-0.000504,0.002314,
626,0.626,-0.003040,0.002965,
627,0.627,-0.000843,-0.000789,
628,0.628,-0.001529,0.004926,
629,0.629,-0.002038,0.002694,
630,0.630,-0.000353,-0.000887,
631,0.631,0.002186,-0.000414,
632,0.632,0.004395,-0.002135,
633,0.633,0.002370,-0.003690,
634,0.634,0.008119,0.002369,
635,0.635,0.000331,-0.001888,
636,0.636,0.003406,0.000282,
637,0.637,-0.003024,0.000938,
638,0.638,0.001232,0.002620,
639,0.639,0.000567,0.000919,
640,0.640,-0.007226,-0.001626,
641,0.641,-0.004181,0.004459,
642,0.642,-0.001458,0.005286,
643,0.643,-0.002306,0.008997,
644,0.644,0.002952,0.011030,
645,0.645,-0.004826,0.004101,
646,0.646,-0.005838,0.006821,
647,0.647,-0.003121,0.007677,
648,0.648,0.006367,0.005480,
649,0.649,-0.002406,0.003466,
650,0.650,-0.003411,-0.004809,
651,0.651,0.001842,-0.010378,
652,0.652,-0.000854,-0.013409,
653,0.653,0.003399,-0.010669,
654,0.654,-0.000309,-0.009801,
655,0.655,-0.002313,-0.013494,
656,0.656,-0.001802,-0.011440,
657,0.657,0.002253,-0.007173,
658,0.658,-0.001294,-0.006634,
659,0.659,0.002924,0.001165,
660,0.660,0.000050,0.002206,
661,0.661,-0.001471,-0.000818,
662,0.662,-0.007560,-0.001638,
663,0.663,0.000217,-0.002451,
664,0.664,-0.002834,-0.000220,
665,0.665,-0.001975,0.001833,
666,0.666,-0.006226,0.004902,
667,0.667,-0.004030,0.013720,
668,0.668,0.003725,0.010028,
669,0.669,0.000654,0.004472,
670,0.670,0.001488,0.005508,
671,0.671,-0.001077,0.006373,
672,0.672,-0.006345,0.002165,
673,0.673,-0.005684,0.004383,
674,0.674,0.000050,0.002376,
675,0.675,0.006956,0.006628,
676,0.676,0.009632,0.007158,
677,0.677,0.005373,0.003628,
678,0.678,0.004671,0.006696,
679,0.679,0.001088,0.010612,
680,0.680,-0.005881,0.007080,
681,0.681,0.004072,0.004901,
682,0.682,-0.002382,0.001873,
683,0.683,0.010453,-0.002853,
684,0.684,-0.017486,-0.003351,
685,0.685,0.010407,-0.005033,
686,0.686,-0.007723,-0.011792,
687,0.687,0.002052,-0.010935,
688,0.688,0.010802,-0.010086,
689,0.689,0.008060,-0.007884,
690,0.690,-0.004327,0.002771,
691,0.691,0.006792,-0.001791,
692,0.692,0.000669,-0.008717,
693,0.693,0.002499,-0.009891,
694,0.694,0.004159,-0.008879,
695,0.695,-0.003475,-0.005831,
696,0.696,-0.004860,-0.001257,
697,0.697,-0.008616,-0.003790,
698,0.698,-0.005428,-0.003121,
699,0.699,-0.004441,-0.003816,
700,0.700,0.000089,0.000395,
701,0.701,-0.012801,-0.007243,
702,0.702,-0.003521,-0.000001,
703,0.703,-0.012007,0.000810,
704,0.704,0.007917,0.006707,
705,0.705,0.005188,0.001449,
706,0.706,-0.002106,0.003458,
707,0.707,0.009040,0.007685,
708,0.708,-0.005189,0.003620,
709,0.709,-0.003348,0.006144,
710,0.710,-0.005046,0.003103,
711,0.711,0.005597,-0.003326,
712,0.712,-0.001352,-0.000613,
713,0.713,-0.007621,0.003606,
714,0.714,0.009465,0.004253,
715,0.715,0.002190,0.004908,
716,0.716,0.013362,0.000658,
717,0.717,0.007287,0.001145,
718,0.718,-0.001992,0.003670,
719,0.719,0.006493,0.003306,
720,0.720,-0.001095,0.001240,
721,0.721,-0.002428,0.002226,
722,0.722,-0.001232,-0.000167,
723,0.723,0.004363,-0.001894,
724,0.724,0.001346,-0.001761,
725,0.725,-0.001332,-0.001117,
726,0.726,-0.002142,-0.004868,
727,0.727,0.000087,-0.002368,
728,0.728,0.002145,-0.001223,
729,0.729,-0.000881,-0.004139,
730,0.730,-0.001367,-0.000621,
731,0.731,-0.002865,0.001537,
732,0.732,-0.000624,0.001155,
733,0.733,-0.003476,0.003641,
734,0.734,-0.000903,0.001220,
735,0.735,0.004359,-0.000529,
736,0.736,0.006581,0.003634,
737,0.737,0.001725,0.003061,
738,0.738,0.002264,0.003498,
739,0.739,0.002826,-0.004349,
740,0.740,-0.001875,-0.003388,
741,0.741,-0.001348,-0.004445,
742,0.742,0.000403,0.003969,
743,0.743,-0.003120,-0.001659,
744,0.744,-0.000035,-0.008974,
745,0.745,0.002034,-0.006304,
746,0.746,0.000234,0.001450,
747,0.747,0.005489,0.004479,
748,0.748,0.006049,0.001753,
749,0.749,0.002614,0.000881,
750,0.750,-0.000326,0.003033,
751,0.751,0.001524,0.003666,
752,0.752,0.009383,-0.000620,
753,0.753,-0.003015,-0.004726,
754,0.754,-0.004607,-0.000032,
755,0.755,-0.002940,-0.009543,
756,0.756,0.001248,-0.002648,
757,0.757,0.000210,0.003576,
758,0.758,-0.005226,-0.004248,
759,0.759,0.000142,-0.001246,
760,0.760,-0.000561,-0.007717,
761,0.761,-0.002963,0.001702,
762,0.762,-0.003481,0.012990,
763,0.763,-0.001304,0.005343,
764,0.764,-0.004215,0.003955,
765,0.765,-0.008133,0.002729,
766,0.766,-0.009516,-0.000532,
767,0.767,-0.002441,0.002460,
768,0.768,-0.001291,0.003259,
769,0.769,0.003396,-0.002700,
770,0.770,0.007755,-0.006460,
771,0.771,0.005681,-0.001581,
772,0.772,-0.001963,-0.001109,
773,0.773,0.003394,-0.005211,
774,0.774,0.002671,-0.004746,
775,0.775,0.007014,0.000291,
776,0.776,0.004920,-0.001763,
777,0.777,0.009929,-0.000092,
778,0.778,0.005798,-0.002983,
779,0.779,0.000671,-0.001468,
780,0.780,-0.002789,-0.001137,
781,0.781,0.006784,0.001737,
782,0.782,0.006193,0.000213,
783,0.783,0.002213,0.003764,
784,0.784,0.016162,0.008839,
785,0.785,-0.011676,0.005291,
786,0.786,0.008346,0.009520,
787,0.787,-0.002417,0.006656,
788,0.788,0.007429,0.001933,
789,0.789,0.010345,0.000260,
790,0.790,-0.008731,-0.001422,
791,0.791,0.008552,-0.002929,
792,0.792,0.001979,-0.004101,
793,0.793,0.004027,-0.003744,
794,0.794,-0.012701,-0.005582,
795,0.795,0.020982,-0.008774,
796,0.796,0.093736,-0.005876,
797,0.797,-0.062741,-0.000090,
798,0.798,-0.040417,0.012809,
799,0.799,-0.060720,0.010976,
800,0.800,-0.005245,0.012700,
801,0.801,-0.022007,0.008165,
802,0.802,-0.006811,0.004136,
803,0.803,-0.020718,0.002980,
804,0.804,-0.008242,-0.000210,
805,0.805,-0.019802,-0.003221,
806,0.806,-0.009548,0.003233,
807,0.807,-0.000139,-0.000953,
808,0.808,-0.008840,-0.000229,
809,0.809,-0.001141,0.004713,
810,0.810,-0.008330,-0.004706,
811,0.811,-0.001986,-0.008726,
812,0.812,0.003676,-0.004951,
813,0.813,0.008816,0.000692,
814,0.814,0.003990,0.003795,
815,0.815,0.008282,0.004698,
816,0.816,0.004289,0.000527,
817,0.817,0.007736,-0.003139,
818,0.818,0.004413,-0.002405,
819,0.819,0.001434,-0.009285,
820,0.820,-0.006792,-0.000770,
821,0.821,0.010359,0.002496,
822,0.822,0.003647,0.003567,
823,0.823,0.005541,0.000910,
824,0.824,0.007282,-0.004967,
825,0.825,0.005453,-0.007117,
826,0.826,0.006851,-0.005036,
827,0.827,-0.005791,-0.006690,
828,0.828,0.005922,-0.004964,
829,0.829,-0.001827,-0.003410,
830,0.830,0.004967,-0.000336,
831,0.831,0.006009,0.000877,
832,0.832,0.002665,0.001935,
833,0.833,0.003556,-0.001226,
834,0.834,0.009852,0.002723,
835,0.835,0.003808,-0.001938,
836,0.836,0.013648,-0.001357,
837,0.837,0.003875,-0.002992,
838,0.838,0.000040,0.000597,
839,0.839,0.000916,0.000291,
840,0.840,-0.000223,0.003203,
841,0.841,0.000500,0.005109,
842,0.842,-0.005547,-0.000103,
843,0.843,-0.006351,-0.000750,
844,0.844,-0.004434,0.002848,
845,0.845,-0.000317,0.001197,
846,0.846,0.001307,-0.001648,
847,0.847,-0.004486,0.006169,
848,0.848,-0.005323,0.002993,
849,0.849,-0.007496,0.004048,
850,0.850,0.000672,0.004931,
851,0.851,0.003839,0.004124,
852,0.852,-0.003483,0.004826,
853,0.853,0.002890,0.001298,
854,0.854,0.005378,0.003008,
855,0.855,0.003153,-0.003405,
856,0.856,0.003790,-0.000854,
857,0.857,0.003254,0.001368,
858,0.858,0.003753,-0.006387,
859,0.859,0.000179,0.000910,
860,0.860,-0.001011,-0.001766,
861,0.861,0.005402,-0.000896,
862,0.862,-0.004912,-0.004595,
863,0.863,0.002032,-0.003896,
864,0.864,-0.004220,-0.005563,
865,0.865,-0.003202,-0.003846,
866,0.866,0.002052,-0.002301,
867,0.867,-0.002515,-0.001092,
868,0.868,0.000032,-0.003962,
869,0.869,-0.002170,-0.001421,
870,0.870,0.001383,-0.000409,
871,0.871,0.008322,0.004673,
872,0.872,-0.001974,0.005359,
873,0.873,0.007684,0.002328,
874,0.874,-0.001100,0.002834,
875,0.875,-0.004299,0.009593,
876,0.876,0.000962,0.010430,
877,0.877,0.001831,0.007880,
878,0.878,0.000995,0.008551,
879,0.879,0.000341,0.006507,
880,0.880,-0.001668,-0.002970,
881,0.881,-0.005870,-0.009912,
882,0.882,-0.001785,-0.011106,
883,0.883,0.000766,-0.017885,
884,0.884,-0.002771,-0.016890,
885,0.885,0.004176,-0.003210,
886,0.886,-0.011541,0.006066,
887,0.887,0.013164,0.004350,
888,0.888,0.003361,-0.000237,
889,0.889,-0.005432,-0.007189,
890,0.890,0.008279,0.001584,
891,0.891,0.005922,0.002584,
892,0.892,-0.000666,-0.006918,
893,0.893,-0.006745,-0.003232,
894,0.894,-0.012322,0.002315,
895,0.895,0.006303,0.001267,
896,0.896,-0.006024,0.002072,
897,0.897,0.009570,0.006259,
898,0.898,-0.004602,0.002495,
899,0.899,-0.010156,-0.001100,
900,0.900,-0.011821,0.003084,
901,0.901,0.008189,-0.001019,
902,0.902,0.000105,0.001478,
903,0.903,-0.002226,0.000259,
904,0.904,0.004400,-0.000119,
905,0.905,0.006452,-0.002690,
906,0.906,0.000911,-0.007287,
907,0.907,0.006019,-0.003091,
908,0.908,0.001486,-0.006013,
909,0.909,0.005583,-0.005547,
910,0.910,-0.003158,-0.005236,
911,0.911,0.000097,-0.000535,
912,0.912,0.003179,0.001128,
913,0.913,0.002371,0.000580,
914,0.914,-0.000131,0.002063,
915,0.915,0.003630,-0.002210,
916,0.916,-0.001243,0.006552,
917,0.917,0.004546,0.007709,
918,0.918,0.000869,0.006670,
919,0.919,-0.004003,0.003593,
920,0.920,-0.005654,0.002719,
921,0.921,-0.003926,-0.001526,
922,0.922,-0.000339,0.005385,
923,0.923,-0.000645,0.004523,
924,0.924,-0.003487,0.003673,
925,0.925,-0.005317,0.005875,
926,0.926,-0.002068,-0.000542,
927,0.927,-0.001696,0.005387,
928,0.928,-0.004194,-0.001545,
929,0.929,-0.003149,0.001162,
930,0.930,-0.000081,0.002005,
931,0.931,0.005020,0.002680,
932,0.932,0.004369,0.003361,
933,0.933,0.008629,0.005055,
934,0.934,0.001049,0.003368,
935,0.935,0.010550,-0.000183,
936,0.936,0.001780,-0.004396,
937,0.937,0.002815,-0.004872,
938,0.938,-0.000204,-0.001285,
939,0.939,-0.001007,-0.005482,
940,0.940,0.001537,0.003344,
941,0.941,-0.002158,0.002185,
942,0.942,0.002765,0.001201,
943,0.943,-0.001465,0.000210,
944,0.944,-0.001960,0.002936,
945,0.945,-0.005504,0.000429,
946,0.946,-0.010542,0.004192,
947,0.947,-0.002733,0.000669,
948,0.948,0.000343,0.001197,
949,0.949,-0.008118,-0.000469,
950,0.950,0.002205,-0.004001,
951,0.951,-0.001853,-0.006159,
952,0.952,0.006968,-0.004928,
953,0.953,0.010199,-0.006733,
954,0.954,-0.005531,-0.010567,
955,0.955,0.001058,-0.003757,
956,0.956,-0.000962,0.006598,
957,0.957,-0.002816,-0.000298,
958,0.958,-0.014658,-0.003985,
959,0.959,-0.004015,0.001625,
960,0.960,0.002907,-0.001395,
961,0.961,-0.003360,0.005061,
962,0.962,0.002202,0.005946,
963,0.963,-0.003057,0.008183,
964,0.964,0.003352,0.003322,
965,0.965,0.002487,0.000326,
966,0.966,-0.004468,0.000882,
967,0.967,0.003974,0.004486,
968,0.968,-0.001628,0.004198,
969,0.969,0.003588,-0.002172,
970,0.970,0.006267,0.006326,
971,0.971,0.000312,0.000784,
972,0.972,0.004009,-0.008652,
973,0.973,-0.000920,-0.009805,
974,0.974,-0.003987,-0.008751,
975,0.975,0.000049,-0.005671,
976,0.976,-0.003527,-0.002933,
977,0.977,0.001525,-0.000377,
978,0.978,0.005059,0.001839,
979,0.979,0.000803,-0.003068,
980,0.980,-0.000923,-0.007290,
981,0.981,-0.001447,-0.000849,
982,0.982,-0.001118,-0.001686,
983,0.983,-0.000806,0.005262,
984,0.984,0.002731,0.006122,
985,0.985,-0.001522,0.001569,
986,0.986,0.007259,-0.000969,
987,0.987,-0.011716,-0.001646,
988,0.988,0.007389,-0.000963,
989,0.989,0.000099,0.007328,
990,0.990,0.002291,0.004100,
991,0.991,0.008369,0.003077,
992,0.992,-0.004674,0.009496,
993,0.993,-0.002986,0.003566,
994,0.994,-0.010598,-0.003380,
995,0.995,-0.009249,0.005063,
996,0.996,-0.002989,0.010638,
997,0.997,0.009518,0.003371,
998,0.998,0.001078,0.004212,
999,0.999,0.002614,-0.006954,
1000,1.000,-0.001453,-0.011531,
1001,1.001,-0.002621,-0.012900,
1002,1.002,0.005173,-0.011730,
1003,1.003,0.012462,-0.001426,
1004,1.004,-0.001552,0.002621,
1005,1.005,-0.003578,-0.001108,
1006,1.006,0.002015,0.004468,
1007,1.007,0.007099,0.007513,
1008,1.008,0.005591,0.008356,
1009,1.009,-0.004040,0.005819,
1010,1.010,0.004776,0.000578,
1011,1.011,0.001600,0.001255,
1012,1.012,0.002651,-0.004500,
1013,1.013,-0.000021,-0.006720,
1014,1.014,0.000857,-0.007424,
1015,1.015,-0.004352,-0.004404,
1016,1.016,0.000599,-0.003936,
1017,1.017,0.003683,-0.010738,
1018,1.018,-0.000346,-0.000441,
1019,1.019,0.003238,-0.001817,
1020,1.020,-0.001813,-0.003027,
1021,1.021,0.000250,0.004743,
1022,1.022,-0.001406,-0.002554,
1023,1.023,-0.000863,-0.001734,
1024,1.024,-0.001352,0.000788,
1025,1.025,0.000873,0.004490,
1026,1.026,-0.001130,0.006488,
1027,1.027,0.002446,0.012215,
1028,1.028,0.008547,0.005255,
1029,1.029,-0.002594,0.000668,
1030,1.030,-0.004107,0.001492,
1031,1.031,0.005544,-0.000734,
1032,1.032,-0.000717,-0.002774,
1033,1.033,0.000306,-0.004482,
1034,1.034,-0.000707,0.003122,
1035,1.035,0.001990,0.000063,
1036,1.036,-0.009171,-0.004530,
1037,1.037,-0.004605,0.001369,
1038,1.038,-0.008681,0.008284,
1039,1.039,-0.002465,0.007414,
1040,1.040,0.000766,0.004869,
1041,1.041,-0.004509,0.002651,
1042,1.042,-0.007220,0.000599,
1043,1.043,-0.001323,0.004820,
1044,1.044,-0.005093,-0.003999,
1045,1.045,0.002652,-0.010282,
1046,1.046,-0.008893,-0.004702,
1047,1.047,-0.001301,-0.005718,
1048,1.048,0.008315,-0.001159,
1049,1.049,-0.000516,0.001375,
1050,1.050,0.000450,-0.000832,
1051,1.051,0.003441,0.001201,
1052,1.052,-0.003019,-0.000493,
1053,1.053,0.002880,-0.004556,
1054,1.054,0.003544,0.000184,
1055,1.055,0.002802,0.000695,
1056,1.056,-0.000296,-0.002176,
1057,1.057,-0.003216,-0.005720,
1058,1.058,0.000299,-0.003512,
1059,1.059,-0.006698,-0.003174,
1060,1.060,-0.007783,0.002572,
1061,1.061,-0.001415,0.012040,
1062,1.062,-0.002324,0.013211,
1063,1.063,-0.000173,0.005419,
1064,1.064,-0.006670,0.010660,
1065,1.065,-0.005885,0.006081,
1066,1.066,0.005551,-0.001705,
1067,1.067,0.000420,-0.002716,
1068,1.068,0.007981,-0.003560,
1069,1.069,0.000987,-0.007769,
1070,1.070,-0.005334,-0.002511,
1071,1.071,-0.002180,-0.004530,
1072,1.072,0.005038,-0.008738,
1073,1.073,-0.001449,-0.002296,
1074,1.074,-0.000661,0.008886,
1075,1.075,-0.000028,0.004344,
1076,1.076,0.009232,0.005731,
1077,1.077,0.000397,0.002041,
1078,1.078,0.005955,0.001061,
1079,1.079,0.002882,0.002099,
1080,1.080,0.007414,-0.004316,
1081,1.081,-0.000405,-0.000072,
1082,1.082,0.002617,-0.000739,
1083,1.083,0.009018,0.001310,
1084,1.084,-0.003859,0.005547,
1085,1.085,0.002047,0.000819,
1086,1.086,0.000165,0.000309,
1087,1.087,0.025517,0.002845,
1088,1.088,-0.021865,-0.004085,
1089,1.089,0.010428,0.001167,
1090,1.090,-0.006997,0.002027,
1091,1.091,-0.001748,-0.003879,
1092,1.092,0.012630,0.001379,
1093,1.093,-0.000561,-0.000644,
1094,1.094,0.003343,-0.008925,
1095,1.095,-0.007464,-0.005713,
1096,1.096,0.002383,-0.004696,
1097,1.097,-0.000473,-0.005526,
1098,1.098,0.007679,-0.006351,
1099,1.099,0.005357,-0.011575,
1100,1.100,-0.010164,-0.003777,
1101,1.101,-0.012159,0.001487,
1102,1.102,-0.013970,0.004203,
1103,1.103,0.011443,0.006743,
1104,1.104,0.000660,0.003034,
1105,1.105,-0.002502,0.003718,
1106,1.106,-0.005340,0.004236,
1107,1.107,0.008403,0.008299,
1108,1.108,0.006076,0.007794,
1109,1.109,0.003916,0.003569,
1110,1.110,0.001928,0.008823,
1111,1.111,-0.007336,0.002401,
1112,1.112,0.004552,-0.001818,
1113,1.113,0.000033,0.005116,
1114,1.114,0.001420,0.002399,
1115,1.115,-0.002260,-0.001840,
1116,1.116,-0.003238,-0.002531,
1117,1.117,-0.000150,-0.006109,
1118,1.118,0.004458,-0.001910,
1119,1.119,0.000274,-0.000246,
1120,1.120,-0.000368,-0.001801,
1121,1.121,0.001681,-0.001485,
1122,1.122,0.002222,-0.002698,
1123,1.123,-0.005357,-0.005268,
1124,1.124,-0.002301,-0.007671,
1125,1.125,-0.004984,-0.005334,
1126,1.126,-0.009202,-0.004692,
1127,1.127,-0.002247,-0.001854,
1128,1.128,-0.001396,0.002331,
1129,1.129,0.001149,0.000594,
1130,1.130,-0.001066,0.003094,
1131,1.131,-0.000403,-0.003888,
1132,1.132,-0.002117,0.003340,
1133,1.133,-0.003837,0.006003,
1134,1.134,0.003922,0.010194,
1135,1.135,0.000663,0.004900,
1136,1.136,0.001644,0.002807,
1137,1.137,0.002456,0.003254,
1138,1.138,-0.001789,-0.003232,
1139,1.139,-0.001177,-0.005838,
1140,1.140,0.000798,-0.006583,
1141,1.141,-0.000929,-0.001737,
1142,1.142,-0.001505,-0.001281,
1143,1.143,-0.005104,0.000358,
1144,1.144,-0.008217,-0.004431,
1145,1.145,-0.001842,-0.007528,
1146,1.146,-0.002764,-0.009263,
1147,1.147,-0.005373,-0.004568,
1148,1.148,-0.006125,-0.000382,
1149,1.149,0.000248,-0.003313,
1150,1.150,-0.005740,0.003401,
1151,1.151,-0.000574,0.006074,
1152,1.152,0.000038,-0.003432,
1153,1.153,-0.004261,0.002802,
1154,1.154,0.004493,-0.000452,
1155,1.155,0.000729,0.002536,
1156,1.156,-0.000319,-0.000222,
1157,1.157,0.002678,0.000584,
1158,1.158,-0.001925,-0.003171,
1159,1.159,0.000553,0.001701,
1160,1.160,-0.000145,0.002175,
1161,1.161,-0.000869,0.006217,
1162,1.162,0.008577,0.003646,
1163,1.163,-0.001079,0.003272,
1164,1.164,0.002617,0.000368,
1165,1.165,0.003590,0.002206,
1166,1.166,0.000526,0.003872,
1167,1.167,-0.000338,0.000801,
1168,1.168,0.000495,0.001798,
1169,1.169,0.005724,-0.002104,
1170,1.170,-0.003600,0.001442,
1171,1.171,0.000110,0.001098,
1172,1.172,0.007887,0.005826,
1173,1.173,-0.001587,0.006334,
1174,1.174,0.004672,0.003463,
1175,1.175,0.001457,0.002964,
1176,1.176,0.002483,0.003310,
1177,1.177,0.001642,0.001293,
1178,1.178,0.011136,-0.004436,
1179,1.179,0.007439,-0.001867,
1180,1.180,0.004251,0.000358,
1181,1.181,0.007335,-0.001634,
1182,1.182,0.002795,-0.004632,
1183,1.183,0.007059,0.004206,
1184,1.184,0.000162,0.007959,
1185,1.185,-0.002484,0.004790,
1186,1.186,-0.002947,0.001953,
1187,1.187,-0.000362,0.005042,
1188,1.188,0.011199,0.005937,
1189,1.189,-0.014126,0.000058,
1190,1.190,0.011307,-0.008371,
1191,1.191,0.001556,-0.002745,
1192,1.192,0.004492,-0.003714,
1193,1.193,-0.003568,-0.006379,
1194,1.194,0.003762,-0.007183,
1195,1.195,0.006019,-0.004960,
1196,1.196,0.004062,-0.002906,
1197,1.197,-0.005173,0.006597,
1198,1.198,-0.000031,0.002579,
1199,1.199,-0.001483,-0.003624,
1200,1.200,-0.008347,-0.000348,
1201,1.201,-0.002017,-0.003322,
1202,1.202,-0.005159,0.007067,
1203,1.203,-0.010335,0.014065,
1204,1.204,-0.014839,0.007863,
1205,1.205,-0.003610,0.000136,
1206,1.206,-0.002025,-0.002848,
1207,1.207,0.010561,-0.001949,
1208,1.208,-0.014748,-0.004433,
1209,1.209,0.003409,-0.009632,
1210,1.210,-0.012947,-0.001813,
1211,1.211,-0.010011,-0.000761,
1212,1.212,-0.001838,0.000122,
1213,1.213,0.010574,-0.004081,
1214,1.214,-0.004933,-0.001855,
1215,1.215,-0.002853,0.000189,
1216,1.216,-0.000941,-0.004023,
1217,1.217,0.004171,-0.002317,
1218,1.218,0.005722,-0.001791,
1219,1.219,0.001690,-0.000577,
1220,1.220,0.000525,0.003340,
1221,1.221,-0.000487,-0.001364,
1222,1.222,-0.001483,-0.003034,
1223,1.223,0.003089,-0.002510,
1224,1.224,-0.002836,0.002244,
1225,1.225,0.002414,0.001757,
1226,1.226,-0.001155,-0.001101,
1227,1.227,-0.000655,-0.002623,
1228,1.228,0.002208,0.001614,
1229,1.229,-0.005601,-0.003634,
1230,1.230,0.004691,-0.010074,
1231,1.231,0.000605,-0.000619,
1232,1.232,-0.000604,0.008164,
1233,1.233,-0.008416,0.000365,
1234,1.234,0.003064,0.001375,
1235,1.235,0.001504,-0.003204,
1236,1.236,-0.002586,-0.004066,
1237,1.237,0.001100,-0.001879,
1238,1.238,-0.002149,0.007411,
1239,1.239,-0.001152,-0.001402,
1240,1.240,-0.000346,0.001782,
1241,1.241,0.000473,0.004775,
1242,1.242,0.002662,0.005574,
1243,1.243,0.000575,0.013305,
1244,1.244,-0.003686,0.010214,
1245,1.245,-0.000840,0.005601,
1246,1.246,0.000636,-0.000362,
1247,1.247,-0.001587,-0.005634,
1248,1.248,0.002260,-0.010557,
1249,1.249,-0.001308,-0.010076,
1250,1.250,0.001714,-0.008397,
1251,1.251,0.002870,-0.006887,
1252,1.252,0.002510,0.000027,
1253,1.253,0.005711,-0.001009,
1254,1.254,0.001772,-0.003729,
1255,1.255,-0.002942,-0.001217,
1256,1.256,-0.001042,-0.000572,
1257,1.257,0.000557,0.001431,
1258,1.258,0.003036,0.008351,
1259,1.259,-0.003950,0.005645,
1260,1.260,-0.000904,0.004799,
1261,1.261,-0.003659,0.006999,
1262,1.262,-0.006280,0.003454,
1263,1.263,-0.001095,0.007693,
1264,1.264,-0.003155,0.003651,
1265,1.265,0.002524,0.004180,
1266,1.266,0.004667,-0.002742,
1267,1.267,0.002559,-0.010002,
1268,1.268,0.008246,-0.009143,
1269,1.269,0.008870,-0.009975,
1270,1.270,-0.001862,-0.003027,
1271,1.271,0.008701,0.001555,
1272,1.272,0.004551,-0.000969,
1273,1.273,-0.001792,-0.006205,
1274,1.274,0.008454,-0.004176,
1275,1.275,-0.001276,0.005301,
1276,1.276,-0.000169,-0.001623,
1277,1.277,0.010062,0.002112,
1278,1.278,0.003029,0.007703,
1279,1.279,-0.003321,0.010758,
1280,1.280,-0.004430,0.004320,
1281,1.281,-0.005536,0.003458,
1282,1.282,-0.008343,-0.000261,
1283,1.283,-0.004232,0.003308,
1284,1.284,-0.009584,0.002808,
1285,1.285,-0.006125,-0.003618,
1286,1.286,-0.004519,-0.001086,
1287,1.287,-0.009346,0.000261,
1288,1.288,-0.008925,0.003964,
1289,1.289,-0.001234,0.011738,
1290,1.290,-0.018409,0.010702,
1291,1.291,0.013812,0.009842,
1292,1.292,-0.008257,0.003905,
1293,1.293,-0.004449,0.003213,
1294,1.294,0.006306,0.002519,
1295,1.295,-0.010167,-0.005801,
1296,1.296,-0.001427,-0.006853,
1297,1.297,-0.015181,-0.003856,
1298,1.298,-0.007956,-0.014230,
1299,1.299,-0.005807,-0.010225,
1300,1.300,-0.003826,-0.004019,
1301,1.301,-0.009446,0.001522,
1302,1.302,0.012519,-0.001565,
1303,1.303,-0.032511,0.001108,
1304,1.304,-0.129638,0.000229,
1305,1.305,0.078913,-0.003531,
1306,1.306,0.049118,-0.008474,
1307,1.307,0.022041,-0.016789,
1308,1.308,-0.002502,-0.013597,
1309,1.309,0.019815,-0.006342,
1310,1.310,0.040109,-0.007221,
1311,1.311,0.021667,-0.006412,
1312,1.312,0.004929,-0.010175,
1313,1.313,0.020162,-0.008195,
1314,1.314,0.006307,0.000052,
1315,1.315,0.018859,-0.001000,
1316,1.316,0.007392,0.002025,
1317,1.317,-0.002886,0.002827,
1318,1.318,0.006635,0.005309,
1319,1.319,0.015317,0.004576,
1320,1.320,0.007594,0.002489,
1321,1.321,0.000542,0.005489,
1322,1.322,-0.005827,0.010703,
1323,1.323,-0.000011,0.008662,
1324,1.324,-0.005202,0.001727,
1325,1.325,-0.000395,-0.000976,
1326,1.326,0.004085,0.001564,
1327,1.327,0.000268,0.002242,
1328,1.328,-0.003207,0.011561,
1329,1.329,0.000076,0.010406,
1330,1.330,0.003034,0.002649,
1331,1.331,0.011238,-0.002572,
1332,1.332,-0.001020,-0.001716,
1333,1.333,-0.003124,0.000829,
1334,1.334,-0.009114,0.003041,
1335,1.335,-0.007152,0.002380,
1336,1.336,-0.005353,0.010674,
1337,1.337,-0.003717,0.005106,
1338,1.338,-0.002239,0.006127,
1339,1.339,-0.000931,0.001572,
1340,1.340,-0.006393,0.002438,
1341,1.341,-0.001034,0.000261,
1342,1.342,-0.007340,0.002297,
1343,1.343,-0.011425,0.006534,
1344,1.344,-0.010629,0.003675,
1345,1.345,-0.008466,0.005209,
1346,1.346,-0.007858,0.005556,
1347,1.347,-0.001311,0.002696,
1348,1.348,-0.002046,0.001719,
1349,1.349,-0.004124,-0.003495,
1350,1.350,-0.007549,-0.001261,
1351,1.351,-0.000494,-0.003237,
1352,1.352,0.000473,-0.003697,
1353,1.353,0.001460,-0.001950,
1354,1.354,-0.002162,-0.001402,
1355,1.355,-0.004169,-0.007457,
1356,1.356,0.002969,-0.008266,
1357,1.357,0.005842,-0.006031,
1358,1.358,0.000034,0.000426,
1359,1.359,0.003857,0.001308,
1360,1.360,-0.002474,0.003559,
1361,1.361,0.001881,0.005646,
1362,1.362,0.002655,0.001490,
1363,1.363,-0.005039,-0.004869,
1364,1.364,0.000267,-0.014275,
1365,1.365,0.001149,-0.000334,
1366,1.366,-0.001347,0.005310,
1367,1.367,-0.000652,0.007058,
1368,1.368,0.000032,0.008628,
1369,1.369,-0.000470,0.004618,
1370,1.370,0.004794,-0.001597,
1371,1.371,-0.000102,-0.014076,
1372,1.372,0.006832,-0.019120,
1373,1.373,0.002244,-0.014526,
1374,1.374,-0.007234,-0.004866,
1375,1.375,0.001551,-0.006047,
1376,1.376,0.007134,-0.009261,
1377,1.377,0.008145,-0.012303,
1378,1.378,-0.002190,-0.005885,
1379,1.379,-0.000852,-0.006736,
1380,1.380,-0.002041,0.003232,
1381,1.381,-0.003065,0.004552,
1382,1.382,-0.000034,0.003326,
1383,1.383,-0.000899,0.002274,
1384,1.384,-0.000082,0.007479,
1385,1.385,-0.000786,0.002882,
1386,1.386,-0.008605,0.010636,
1387,1.387,-0.003395,0.007559,
1388,1.388,0.004350,0.005663,
1389,1.389,-0.000251,0.002912,
1390,1.390,0.012582,0.010641,
1391,1.391,-0.015362,0.005343,
1392,1.392,0.004569,-0.001153,
1393,1.393,0.000968,0.003011,
1394,1.394,0.010750,0.000754,
1395,1.395,0.001932,-0.001341,
1396,1.396,-0.000818,-0.010876,
1397,1.397,-0.003213,-0.006888,
1398,1.398,-0.005429,-0.003242,
1399,1.399,0.000623,-0.008897,
1400,1.400,-0.004995,0.000514,
1401,1.401,-0.006718,-0.005807,
1402,1.402,-0.005200,0.006656,
1403,1.403,0.001710,0.008300,
1404,1.404,0.005394,0.003686,
1405,1.405,-0.004959,0.002277,
1406,1.406,0.004643,0.003415,
1407,1.407,-0.006729,0.002354,
1408,1.408,0.003881,-0.002928,
1409,1.409,-0.011395,-0.005673,
1410,1.410,-0.009414,-0.013500,
1411,1.411,-0.015073,-0.010502,
1412,1.412,0.006852,-0.005972,
1413,1.413,0.009656,-0.001781,
1414,1.414,0.006872,0.000382,
1415,1.415,0.009179,0.003888,
1416,1.416,0.006916,0.006915,
1417,1.417,0.008866,0.002854,
1418,1.418,-0.000511,0.002349,
1419,1.419,-0.002272,0.002014,
1420,1.420,-0.000824,0.004897,
1421,1.421,0.006039,0.005927,
1422,1.422,-0.002822,0.006280,
1423,1.423,-0.001871,0.006639,
1424,1.424,-0.007187,0.003625,
1425,1.425,-0.002699,0.000791,
1426,1.426,0.001462,0.006579,
1427,1.427,-0.002325,0.004075,
1428,1.428,-0.007309,0.003439,
1429,1.429,-0.003164,0.008384,
1430,1.430,0.002004,0.006726,
1431,1.431,-0.002981,0.001527,
1432,1.432,0.001172,0.002255,
1433,1.433,-0.002960,-0.004629,
1434,1.434,0.004750,-0.007279,
1435,1.435,0.003652,-0.001306,
1436,1.436,0.004605,-0.004986,
1437,1.437,0.001824,-0.000032,
1438,1.438,-0.004155,0.000517,
1439,1.439,-0.002011,0.001068,
1440,1.440,-0.000042,0.006852,
1441,1.441,0.006852,0.004692,
1442,1.442,-0.007242,-0.000187,
1443,1.443,-0.009329,0.001520,
1444,1.444,0.007411,-0.001327,
1445,1.445,-0.003810,0.004460,
1446,1.446,-0.005881,0.003827,
1447,1.447,0.007095,0.000308,
1448,1.448,0.001964,-0.007942,
1449,1.449,-0.002641,-0.004669,
1450,1.450,-0.015192,-0.007667,
1451,1.451,0.000014,-0.010325,
1452,1.452,0.006096,-0.006051,
1453,1.453,0.000521,0.002470,
1454,1.454,0.002205,-0.005258,
1455,1.455,0.003736,-0.002160,
1456,1.456,0.007776,-0.002950,
1457,1.457,0.004071,0.003028,
1458,1.458,0.003057,0.008320,
1459,1.459,0.014563,0.010393,
1460,1.460,0.006959,0.003502,
1461,1.461,0.008326,0.002685,
1462,1.462,0.004617,-0.001517,
1463,1.463,-0.003140,0.003761,
1464,1.464,-0.002099,-0.003983,
1465,1.465,0.006383,-0.009195,
1466,1.466,0.000819,-0.008316,
1467,1.467,-0.002201,-0.005743,
1468,1.468,0.000538,-0.007908,
1469,1.469,0.001392,-0.012788,
1470,1.470,-0.007064,-0.013287,
1471,1.471,-0.003845,-0.011581,
1472,1.472,-0.000770,-0.008013,
1473,1.473,-0.001605,-0.003777,
1474,1.474,-0.002426,0.002647,
1475,1.475,-0.001710,0.005183,
1476,1.476,0.006107,0.001456,
1477,1.477,0.003098,0.009241,
1478,1.478,-0.001437,0.012282,
1479,1.479,0.001151,0.009561,
1480,1.480,-0.001002,0.005319,
1481,1.481,-0.000290,0.003108,
1482,1.482,-0.000766,-0.000462,
1483,1.483,0.008065,0.005271,
1484,1.484,-0.005759,0.007453,
1485,1.485,-0.000132,0.005406,
1486,1.486,-0.005151,0.005899,
1487,1.487,-0.000542,0.001811,
1488,1.488,0.000854,0.006525,
1489,1.489,-0.003516,0.003963,
1490,1.490,-0.009733,0.006992,
1491,1.491,0.007388,0.008669,
1492,1.492,-0.024885,0.000876,
1493,1.493,0.014899,-0.004718,
1494,1.494,-0.000963,-0.009963,
1495,1.495,0.003823,-0.005397,
1496,1.496,0.008246,-0.004550,
1497,1.497,-0.003560,-0.013008,
1498,1.498,0.000043,-0.005233,
1499,1.499,-0.009725,0.000008,
1500,1.500,-0.012579,-0.000843,
1501,1.501,-0.015273,-0.005082,
1502,1.502,0.002008,0.000151,
1503,1.503,-0.004555,-0.003405,
1504,1.504,0.009692,-0.006446,
1505,1.505,-0.007023,-0.005933,
1506,1.506,-0.000395,-0.001178,
1507,1.507,0.005725,-0.000642,
1508,1.508,-0.003546,-0.003486,
1509,1.509,-0.001834,0.004331,
1510,1.510,-0.000277,0.007572,
1511,1.511,0.006677,0.004540,
1512,1.512,0.005528,0.003698,
1513,1.513,0.004527,0.006245,
1514,1.514,0.007586,0.004053,
1515,1.515,0.001168,0.002023,
1516,1.516,-0.003050,-0.002202,
1517,1.517,0.008477,0.001866,
1518,1.518,0.010190,0.009656,
1519,1.519,0.008677,0.004071,
1520,1.520,-0.003829,0.001026,
1521,1.521,0.004635,0.003727,
1522,1.522,-0.002961,0.007968,
1523,1.523,-0.012580,0.001066,
1524,1.524,-0.003770,0.000254,
1525,1.525,-0.000529,-0.003932,
1526,1.526,0.000515,-0.001686,
1527,1.527,-0.011640,0.003266,
1528,1.528,-0.003168,0.002805,
1529,1.529,0.007516,-0.001225,
1530,1.530,0.006181,-0.001717,
1531,1.531,0.005015,-0.001374,
1532,1.532,-0.005288,-0.005267,
1533,1.533,0.001666,-0.004756,
1534,1.534,-0.007089,-0.001706,
1535,1.535,0.003256,0.004724,
1536,1.536,-0.000781,0.003868,
1537,1.537,0.005511,0.004707,
1538,1.538,-0.002247,-0.002239,
1539,1.539,0.003040,0.000452,
1540,1.540,0.003911,-0.003800,
1541,1.541,-0.000294,-0.006023,
1542,1.542,-0.005511,-0.009602,
1543,1.543,-0.001949,-0.009131,
1544,1.544,0.006357,-0.005115,
1545,1.545,-0.001368,-0.004649,
1546,1.546,-0.004391,-0.000470,
1547,1.547,-0.003500,-0.005753,
1548,1.548,0.007693,0.000628,
1549,1.549,0.006183,0.003133,
1550,1.550,0.004850,0.003787,
1551,1.551,0.001154,0.003086,
1552,1.552,-0.004415,0.003580,
1553,1.553,-0.001319,-0.001668,
1554,1.554,-0.000422,-0.006569,
1555,1.555,0.000494,-0.010794,
1556,1.556,-0.004730,-0.006723,
1557,1.557,0.001757,-0.005186,
1558,1.558,-0.002419,0.000916,
1559,1.559,0.001360,0.005149,
1560,1.560,-0.009238,0.008886,
1561,1.561,0.001465,0.002470,
1562,1.562,-0.002542,0.006707,
1563,1.563,0.001233,0.006034,
1564,1.564,0.004505,0.001134,
1565,1.565,-0.006962,0.000629,
1566,1.566,-0.005391,0.003500,
1567,1.567,0.004302,0.009243,
1568,1.568,0.003166,0.005518,
1569,1.569,0.002204,0.009072,
1570,1.570,-0.000797,-0.000411,
1571,1.571,-0.003465,-0.010068,
1572,1.572,0.004361,-0.006361,
1573,1.573,-0.005072,-0.007380,
1574,1.574,-0.003861,-0.008406,
1575,1.575,0.003965,-0.009260,
1576,1.576,0.007064,-0.005049,
1577,1.577,-0.003214,0.004917,
1578,1.578,0.003754,0.008960,
1579,1.579,0.002613,0.010127,
1580,1.580,0.003683,0.009084,
1581,1.581,0.002722,0.001789,
1582,1.582,-0.007553,0.002610,
1583,1.583,-0.003468,0.003429,
1584,1.584,0.002833,0.007138,
1585,1.585,-0.004918,0.002223,
1586,1.586,0.004588,0.000524,
1587,1.587,-0.006729,0.004570,
1588,1.588,0.003941,0.006078,
1589,1.589,0.002592,0.004881,
1590,1.590,0.009208,0.004360,
1591,1.591,0.002968,0.004676,
1592,1.592,0.020060,0.004991,
1593,1.593,-0.017161,0.000400,
1594,1.594,0.009401,0.008669,
1595,1.595,-0.004977,0.000874,
1596,1.596,-0.000592,0.001881,
1597,1.597,0.011227,-0.002691,
1598,1.598,0.000371,-0.005243,
1599,1.599,-0.002855,-0.004579,
1600,1.600,0.005924,-0.012370,
1601,1.601,-0.007806,-0.013385,
1602,1.602,-0.010199,-0.017955,
1603,1.603,-0.012434,-0.015411,
1604,1.604,0.010032,-0.014736,
1605,1.605,-0.010819,-0.011195,
1606,1.606,-0.002729,-0.006982,
1607,1.607,-0.010055,-0.001753,
1608,1.608,-0.007907,-0.003792,
1609,1.609,0.002181,-0.000758,
1610,1.610,0.000275,-0.000262,
1611,1.611,-0.001479,0.001263,
1612,1.612,-0.006110,0.000921,
1613,1.613,0.009047,0.001265,
1614,1.614,-0.005214,0.003803,
1615,1.615,-0.007139,0.004133,
1616,1.616,0.001245,0.002432,
1617,1.617,-0.003402,0.002600,
1618,1.618,0.000594,0.005980,
1619,1.619,-0.003185,0.005623,
1620,1.620,-0.002244,0.005943,
1621,1.621,-0.003327,0.000171,
1622,1.622,0.001160,0.001001,
1623,1.623,-0.003141,-0.001209,
1624,1.624,-0.006940,0.003687,
1625,1.625,0.002285,0.003164,
1626,1.626,0.001015,0.007202,
1627,1.627,-0.000075,0.004653,
1628,1.628,-0.003214,0.008882,
1629,1.629,-0.004144,0.003647,
1630,1.630,0.000011,0.005676,
1631,1.631,0.005174,0.003989,
1632,1.632,-0.002701,-0.003623,
1633,1.633,0.000254,-0.002605,
1634,1.634,0.002871,0.000100,
1635,1.635,0.008718,0.002651,
1636,1.636,0.010837,0.001977,
1637,1.637,0.008730,-0.002926,
1638,1.638,-0.000823,0.000129,
1639,1.639,-0.002231,0.003025,
1640,1.640,0.001423,0.002531,
1641,1.641,0.004578,0.002210,
1642,1.642,-0.000759,0.001045,
1643,1.643,0.003755,0.000055,
1644,1.644,0.004506,-0.002295,
1645,1.645,0.006616,-0.001935,
1646,1.646,0.008593,0.002313,
1647,1.647,0.000226,0.004030,
1648,1.648,-0.000798,0.001179,
1649,1.649,0.002183,-0.004545,
1650,1.650,-0.004302,-0.003831,
1651,1.651,-0.001818,-0.008706,
1652,1.652,-0.002540,-0.005634,
1653,1.653,0.003811,-0.000360,
1654,1.654,-0.007398,0.001714,
1655,1.655,0.003235,0.004805,
1656,1.656,0.004554,0.000801,
1657,1.657,0.005713,0.005609,
1658,1.658,-0.004636,0.006184,
1659,1.659,-0.000583,-0.002549,
1660,1.660,0.005687,-0.003680,
1661,1.661,0.002475,-0.006843,
1662,1.662,-0.007005,-0.003752,
1663,1.663,0.001810,-0.000997,
1664,1.664,0.000823,-0.000096,
1665,1.665,0.003876,-0.003741,
1666,1.666,-0.002544,0.001258,
1667,1.667,-0.008427,0.007110,
1668,1.668,0.001601,0.006517,
1669,1.669,-0.005297,0.001684,
1670,1.670,0.000991,-0.005185,
1671,1.671,0.000015,-0.002422,
1672,1.672,-0.002968,-0.001517,
1673,1.673,-0.000191,0.003776,
1674,1.674,0.007645,0.008721,
1675,1.675,0.000409,0.004530,
1676,1.676,0.005037,0.002868,
1677,1.677,0.002566,-0.001846,
1678,1.678,-0.005820,0.003918,
1679,1.679,-0.000172,-0.001313,
1680,1.680,0.007156,-0.003342,
1681,1.681,-0.001250,-0.002838,
1682,1.682,0.002035,0.001221,
1683,1.683,-0.003152,-0.005557,
1684,1.684,-0.002258,-0.001007,
1685,1.685,0.002032,-0.000174,
1686,1.686,-0.001636,-0.002391,
1687,1.687,-0.009365,-0.005960,
1688,1.688,0.000157,-0.001760,
1689,1.689,-0.000991,-0.003477,
1690,1.690,0.016146,-0.002996,
1691,1.691,-0.001911,-0.004551,
1692,1.692,0.005404,-0.001539,
1693,1.693,0.016618,0.002311,
1694,1.694,-0.013964,-0.000262,
1695,1.695,0.008072,-0.002490,
1696,1.696,-0.027926,-0.002186,
1697,1.697,0.005941,-0.002561,
1698,1.698,0.001556,-0.004974,
1699,1.699,0.005470,-0.001982,
1700,1.700,-0.005330,0.003706,
1701,1.701,0.017695,0.002806,
1702,1.702,-0.003090,-0.000985,
1703,1.703,-0.000376,0.000977,
1704,1.704,-0.002737,-0.000784,
1705,1.705,-0.000533,-0.006097,
1706,1.706,0.001514,0.000270,
1707,1.707,-0.007783,0.002746,
1708,1.708,-0.009475,0.009629,
1709,1.709,-0.001868,0.008721,
1710,1.710,0.005068,0.009488,
1711,1.711,-0.011342,0.005688,
1712,1.712,-0.004749,-0.000816,
1713,1.713,0.001328,-0.013746,
1714,1.714,0.003173,-0.023113,
1715,1.715,-0.008679,-0.024869,
1716,1.716,-0.013258,-0.011060,
1717,1.717,-0.000762,-0.001809,
1718,1.718,0.004293,-0.000177,
1719,1.719,-0.000287,0.004315,
1720,1.720,-0.012825,-0.002699,
1721,1.721,-0.011146,0.003477,
1722,1.722,-0.000501,0.006597,
1723,1.723,0.009116,0.007531,
1724,1.724,0.000302,0.008311,
1725,1.725,-0.002918,0.010792,
1726,1.726,-0.005982,0.011415,
1727,1.727,-0.001443,0.007794,
1728,1.728,0.006305,0.008218,
1729,1.729,0.009316,0.007628,
1730,1.730,-0.001027,0.000783,
1731,1.731,0.003013,0.001548,
1732,1.732,0.009246,0.004013,
1733,1.733,0.001452,0.000227,
1734,1.734,0.006676,0.002197,
1735,1.735,0.005799,-0.002094,
1736,1.736,0.003243,0.001906,
1737,1.737,0.003886,-0.000685,
1738,1.738,-0.006810,-0.001068,
1739,1.739,0.000763,0.000086,
1740,1.740,0.002084,-0.001790,
1741,1.741,-0.006722,0.000574,
1742,1.742,0.003559,-0.004516,
1743,1.743,-0.003399,-0.010959,
1744,1.744,0.002841,-0.006739,
1745,1.745,0.001787,-0.003034,
1746,1.746,0.006994,0.001857,
1747,1.747,-0.001486,0.002363,
1748,1.748,-0.002529,0.005247,
1749,1.749,-0.001519,-0.002525,
1750,1.750,-0.002380,0.005270,
1751,1.751,0.005363,0.004276,
1752,1.752,0.006388,0.007000,
1753,1.753,-0.000059,0.004485,
1754,1.754,-0.002591,-0.000734,
1755,1.755,0.002652,-0.004263,
1756,1.756,0.004691,-0.007280,
1757,1.757,0.000457,-0.002010,
1758,1.758,-0.002427,0.002919,
1759,1.759,0.001126,0.001259,
1760,1.760,-0.001068,-0.001573,
1761,1.761,-0.001390,-0.000006,
1762,1.762,0.004362,-0.005053,
1763,1.763,-0.001526,-0.002995,
1764,1.764,-0.000856,-0.004664,
1765,1.765,0.001053,-0.006323,
1766,1.766,-0.003096,0.001482,
1767,1.767,-0.002525,0.009296,
1768,1.768,-0.001896,0.006284,
1769,1.769,-0.003019,0.005475,
1770,1.770,-0.003272,0.013298,
1771,1.771,0.002587,0.003853,
1772,1.772,-0.001536,-0.002369,
1773,1.773,-0.005151,-0.005546,
1774,1.774,-0.001462,-0.008569,
1775,1.775,0.006948,0.001777,
1776,1.776,0.006072,0.008735,
1777,1.777,0.000962,0.009937,
1778,1.778,-0.001611,0.004367,
1779,1.779,-0.000611,0.005407,
1780,1.780,-0.001137,0.000869,
1781,1.781,-0.007430,0.000031,
1782,1.782,-0.003035,-0.005204,
1783,1.783,0.005577,0.001232,
1784,1.784,0.000149,0.002076,
1785,1.785,0.007578,-0.001643,
1786,1.786,0.006881,-0.006539,
1787,1.787,0.012963,-0.009573,
1788,1.788,0.006178,-0.015981,
1789,1.789,-0.000104,-0.016811,
1790,1.790,0.007843,-0.005294,
1791,1.791,0.000728,-0.000213,
1792,1.792,0.004436,0.000122,
1793,1.793,0.000032,0.004683,
1794,1.794,0.013049,0.003333,
1795,1.795,-0.014696,-0.002922,
1796,1.796,0.013394,-0.006123,
1797,1.797,-0.004541,-0.005082,
1798,1.798,0.005424,-0.002352,
1799,1.799,0.014377,-0.001484,
1800,1.800,-0.004572,0.000726,
1801,1.801,0.002853,-0.002809,
1802,1.802,-0.008160,-0.001102,
1803,1.803,-0.001921,0.000596,
1804,1.804,-0.003645,-0.002951,
1805,1.805,0.008313,0.003977,
1806,1.806,0.006909,0.007013,
1807,1.807,0.002973,0.004298,
1808,1.808,0.006792,-0.005183,
1809,1.809,0.003667,-0.004014,
1810,1.810,0.006801,0.003751,
1811,1.811,-0.007155,0.000690,
1812,1.812,0.023533,-0.000167,
1813,1.813,0.089739,-0.007957,
1814,1.814,-0.052471,0.003543,
1815,1.815,-0.032117,0.008110,
1816,1.816,-0.050509,0.012161,
1817,1.817,-0.000062,0.008434,
1818,1.818,-0.015257,0.005222,
1819,1.819,-0.029109,0.008269,
1820,1.820,-0.016583,0.003699,
1821,1.821,-0.005090,0.002859,
1822,1.822,-0.015426,0.009785,
1823,1.823,-0.005992,0.003355,
1824,1.824,-0.014657,0.004199,
1825,1.825,-0.006936,0.003522,
1826,1.826,0.000113,0.001501,
1827,1.827,-0.006384,-0.007960,
1828,1.828,-0.000721,-0.012017,
1829,1.829,0.004421,-0.000687,
1830,1.830,-0.010063,-0.002208,
1831,1.831,0.003019,-0.000851,
1832,1.832,-0.000991,0.002875,
1833,1.833,0.002442,-0.000343,
1834,1.834,0.005538,-0.007609,
1835,1.835,-0.003385,-0.004884,
1836,1.836,0.004597,-0.010797,
1837,1.837,0.002070,-0.007070,
1838,1.838,-0.004675,-0.003515,
1839,1.839,0.001265,0.000712,
1840,1.840,-0.000760,0.007145,
1841,1.841,0.000772,0.004623,
1842,1.842,-0.000927,-0.003820,
1843,1.843,-0.002462,-0.000587,
1844,1.844,-0.008909,-0.003613,
1845,1.845,0.001226,-0.008154,
1846,1.846,0.002372,-0.005593,
1847,1.847,-0.001551,-0.003375,
1848,1.848,-0.007318,0.000207,
1849,1.849,0.001967,-0.000266,
1850,1.850,0.002974,-0.000740,
1851,1.851,0.001752,0.005045,
1852,1.852,0.002556,0.002891,
1853,1.853,0.010840,0.006488,
1854,1.854,0.007435,0.004838,
1855,1.855,0.000002,0.003192,
1856,1.856,0.010175,0.005773,
1857,1.857,0.008676,0.010898,
1858,1.858,0.004798,0.008905,
1859,1.859,0.001423,0.004707,
1860,1.860,0.006525,0.001864,
1861,1.861,0.007242,-0.002837,
1862,1.862,0.001210,-0.003313,
1863,1.863,-0.001104,-0.004968,
1864,1.864,-0.000489,0.000812,
1865,1.865,-0.000170,0.003060,
1866,1.866,-0.000824,0.001088,
1867,1.867,0.001556,-0.001909,
1868,1.868,0.002652,-0.000177,
1869,1.869,0.008131,-0.002680,
1870,1.870,0.008712,0.001583,
1871,1.871,0.012201,-0.007182,
1872,1.872,0.002671,-0.005969,
1873,1.873,0.012263,-0.004922,
1874,1.874,0.005962,-0.003885,
1875,1.875,0.004912,-0.001157,
1876,1.876,0.007934,0.004780,
1877,1.877,0.007081,0.004112,
1878,1.878,0.002847,0.000564,
1879,1.879,0.002166,-0.002470,
1880,1.880,-0.002741,-0.001940,
1881,1.881,-0.003256,0.001616,
1882,1.882,-0.003756,-0.001435,
1883,1.883,-0.006281,-0.005318,
1884,1.884,0.000662,0.000438,
1885,1.885,0.007954,0.001121,
1886,1.886,-0.002362,0.003160,
1887,1.887,-0.009267,0.004861,
1888,1.888,-0.005557,0.003187,
1889,1.889,-0.006551,0.004725,
1890,1.890,-0.001294,0.006937,
1891,1.891,0.001429,0.004069,
1892,1.892,0.000597,0.005076,
1893,1.893,0.002658,-0.001884,
1894,1.894,0.000490,-0.002920,
1895,1.895,0.011173,0.000105,
1896,1.896,-0.011806,-0.005679,
1897,1.897,-0.001969,-0.004858,
1898,1.898,-0.004822,-0.002672,
1899,1.899,0.003318,-0.000625,
1900,1.900,0.010626,-0.010074,
1901,1.901,-0.018614,-0.005995,
1902,1.902,0.001364,-0.002261,
1903,1.903,-0.016727,-0.005468,
1904,1.904,-0.013488,-0.000217,
1905,1.905,-0.010597,-0.002917,
1906,1.906,-0.002467,0.002994,
1907,1.907,0.004823,0.000806,
1908,1.908,-0.006335,0.001494,
1909,1.909,-0.008364,0.003193,
1910,1.910,-0.021397,0.002682,
1911,1.911,0.003984,-0.000878,
1912,1.912,0.000432,0.000296,
1913,1.913,0.003635,-0.006138,
1914,1.914,0.000755,-0.008849,
1915,1.915,0.008871,-0.001071,
1916,1.916,0.001598,-0.000061,
1917,1.917,0.008194,0.000777,
1918,1.918,0.002109,0.001616,
1919,1.919,-0.003465,-0.000585,
1920,1.920,0.005003,0.000094,
1921,1.921,0.000434,0.000607,
1922,1.922,0.004484,0.002298,
1923,1.923,0.000750,0.002811,
1924,1.924,0.001766,0.003996,
1925,1.925,-0.001291,0.006029,
1926,1.926,-0.002134,0.003498,
1927,1.927,0.003773,-0.001737,
1928,1.928,0.005958,-0.001059,
1929,1.929,0.003913,0.009600,
1930,1.930,0.003402,0.014162,
1931,1.931,-0.000676,0.004512,
1932,1.932,0.006078,0.003323,
1933,1.933,0.001511,-0.002267,
1934,1.934,0.005744,-0.001258,
1935,1.935,-0.005750,-0.003969,
1936,1.936,0.019645,-0.004817,
1937,1.937,-0.005712,-0.001098,
1938,1.938,0.004122,0.002450,
1939,1.939,0.001275,0.006675,
1940,1.940,0.004016,0.011923,
1941,1.941,-0.008284,0.013963,
1942,1.942,-0.006039,0.009732,
1943,1.943,-0.003956,0.005668,
1944,1.944,0.001679,0.009204,
1945,1.945,0.003426,0.004117,
1946,1.946,0.001979,-0.003684,
1947,1.947,0.000674,-0.019445,
1948,1.948,-0.003006,-0.021677,
1949,1.949,0.002661,-0.015613,
1950,1.950,0.005772,-0.006330,
1951,1.951,0.008568,-0.004667,
1952,1.952,0.000850,-0.003173,
1953,1.953,0.001928,-0.004554,
1954,1.954,-0.000701,0.004212,
1955,1.955,0.000223,-0.008324,
1956,1.956,0.002517,-0.006646,
1957,1.957,0.001952,-0.005115,
1958,1.958,0.003761,-0.001041,
1959,1.959,-0.003766,0.000151,
1960,1.960,-0.000607,-0.000865,
1961,1.961,0.002181,-0.001877,
1962,1.962,-0.003618,-0.002722,
1963,1.963,-0.002812,0.001518,
1964,1.964,-0.004711,0.003709,
1965,1.965,-0.002921,0.003022,
1966,1.966,-0.004500,0.001334,
1967,1.967,-0.005924,-0.000354,
1968,1.968,-0.002777,-0.003906,
1969,1.969,0.003754,-0.001709,
1970,1.970,0.008404,-0.001366,
1971,1.971,0.002562,-0.002371,
1972,1.972,-0.001081,0.002212,
1973,1.973,0.002540,0.002734,
1974,1.974,-0.006870,0.002245,
1975,1.975,0.005701,0.003779,
1976,1.976,0.004061,0.005994,
1977,1.977,0.002584,0.003129,
1978,1.978,-0.004306,0.005676,
1979,1.979,0.004520,0.006703,
1980,1.980,0.001334,0.005038,
1981,1.981,-0.003898,0.004889,
1982,1.982,-0.004732,0.001009,
1983,1.983,-0.000500,0.003893,
1984,1.984,-0.002702,0.001359,
1985,1.985,-0.004746,0.001706,
1986,1.986,-0.007826,0.002896,
1987,1.987,-0.004974,0.000369,
1988,1.988,-0.004510,-0.004186,
1989,1.989,-0.007590,-0.007226,
1990,1.990,-0.001224,-0.000788,
1991,1.991,-0.003993,0.000068,
1992,1.992,0.000159,0.003800,
1993,1.993,-0.002121,0.000254,
1994,1.994,-0.006603,0.006857,
1995,1.995,-0.000250,0.008558,
1996,1.996,0.012525,0.010242,
1997,1.997,-0.015476,0.006678,
1998,1.998,0.004398,0.002426,
1999,1.999,-0.006532,0.002918,
2000,2.000,-0.003419,0.005447,
2001,2.001,0.011364,0.005780,
2002,2.002,-0.007861,0.004590,
2003,2.003,-0.000706,-0.001168,
2004,2.004,-0.007424,-0.005400,
2005,2.005,-0.009580,-0.015368,
2006,2.006,-0.007836,-0.016719,
2007,2.007,0.007273,-0.010460,
2008,2.008,-0.011285,-0.002674,
2009,2.009,0.005840,-0.005718,
2010,2.010,-0.005458,-0.004876,
2011,2.011,-0.011668,-0.009112,
2012,2.012,-0.009933,0.000853,
2013,2.013,0.008544,0.002177,
2014,2.014,0.001145,-0.001567,
2015,2.015,0.003229,-0.000558,
2016,2.016,0.001081,0.002481,
2017,2.017,-0.004609,0.003316,
2018,2.018,0.003747,-0.002628,
2019,2.019,0.008210,-0.004854,
2020,2.020,0.001180,-0.006916,
2021,2.021,0.007341,-0.003893,
2022,2.022,0.004037,-0.005612,
2023,2.023,0.006991,0.000121,
2024,2.024,0.002334,-0.002103,
2025,2.025,0.003092,-0.000096,
2026,2.026,0.002337,-0.001823,
2027,2.027,0.008707,-0.002359,
2028,2.028,0.002720,-0.004924,
2029,2.029,0.007891,0.001150,
2030,2.030,0.001407,0.000273,
2031,2.031,0.005592,0.000911,
2032,2.032,0.001810,0.001555,
2033,2.033,0.006668,-0.000176,
2034,2.034,0.008333,0.001478,
2035,2.035,0.008817,-0.001109,
2036,2.036,0.001018,0.001041,
2037,2.037,-0.002221,0.007416,
2038,2.038,0.009281,0.004655,
2039,2.039,0.004704,0.005439,
2040,2.040,0.003359,0.003173,
2041,2.041,0.004559,0.001085,
2042,2.042,0.003564,-0.002010,
2043,2.043,-0.001655,-0.002557,
2044,2.044,-0.000786,0.005172,
2045,2.045,0.000090,0.001915,
2046,2.046,-0.005124,0.002883,
2047,2.047,0.001347,0.000134,
2048,2.048,0.000529,0.002628,
2049,2.049,-0.000118,0.006306,
2050,2.050,0.001976,0.006942,
2051,2.051,0.000314,0.006390,
2052,2.052,-0.000135,0.002288,
2053,2.053,0.000419,-0.003494,
2054,2.054,-0.006485,-0.004197,
2055,2.055,-0.005414,-0.000673,
2056,2.056,-0.004513,-0.002405,
2057,2.057,0.003325,0.001629,
2058,2.058,0.000362,0.004158,
2059,2.059,-0.005995,0.002984,
2060,2.060,0.000001,0.005867,
2061,2.061,0.000736,0.011635,
2062,2.062,-0.001247,0.005719,
2063,2.063,-0.006932,-0.005750,
2064,2.064,-0.001623,-0.007404,
2065,2.065,-0.006473,-0.005848,
2066,2.066,-0.006921,0.001124,
2067,2.067,-0.000430,-0.000013,
2068,2.068,-0.001227,0.003253,
2069,2.069,0.004078,-0.003982,
2070,2.070,-0.003646,-0.001241,
2071,2.071,-0.002585,-0.005430,
2072,2.072,0.002033,-0.001659,
2073,2.073,-0.002144,-0.003634,
2074,2.074,0.001644,0.003366,
2075,2.075,-0.008973,-0.001143,
2076,2.076,-0.001325,-0.005308,
2077,2.077,0.002774,-0.010491,
2078,2.078,-0.000908,0.000218,
2079,2.079,-0.006470,0.001793,
2080,2.080,0.005063,-0.002198,
2081,2.081,0.000508,-0.000956,
2082,2.082,-0.006412,0.000100,
2083,2.083,-0.005223,0.005386,
2084,2.084,-0.004204,0.004584,
2085,2.085,0.003078,0.007168,
2086,2.086,-0.005386,0.005010,
2087,2.087,0.004925,0.007081,
2088,2.088,-0.004739,0.008812,
2089,2.089,-0.001036,0.005966,
2090,2.090,-0.002065,0.001258,
2091,2.091,0.000963,-0.002945,
2092,2.092,0.003655,0.003493,
2093,2.093,-0.000587,0.000956,
2094,2.094,0.006333,0.003159,
2095,2.095,0.004792,0.000453,
2096,2.096,0.000211,-0.001579,
2097,2.097,0.013054,-0.003267,
2098,2.098,-0.014869,-0.002750,
2099,2.099,0.013043,0.001984,
2100,2.100,0.002210,0.000282,
2101,2.101,-0.001004,-0.006149,
2102,2.102,0.013881,-0.008691,
2103,2.103,-0.005249,-0.006503,
2104,2.104,-0.002885,0.001250,
2105,2.105,-0.000685,-0.004029,
2106,2.106,-0.006777,-0.006771,
2107,2.107,-0.008634,-0.009332,
2108,2.108,-0.000172,-0.005643,
2109,2.109,0.004401,-0.006352,
2110,2.110,0.008462,0.001907,
2111,2.111,-0.002860,-0.008441,
2112,2.112,0.007821,-0.007116,
2113,2.113,0.006481,-0.003441,
2114,2.114,0.002775,-0.002479,
2115,2.115,-0.002782,-0.005576,
2116,2.116,0.002486,-0.006474,
2117,2.117,-0.002049,0.001257,
2118,2.118,0.000526,0.004246,
2119,2.119,0.001241,0.001485,
2120,2.120,-0.000737,-0.001104,
2121,2.121,-0.004928,-0.003353,
2122,2.122,-0.013680,-0.004084,
2123,2.123,0.000242,0.000100,
2124,2.124,0.002151,-0.001637,
2125,2.125,-0.002886,-0.000150,
2126,2.126,-0.001321,0.006750,
2127,2.127,0.005658,0.003671,
2128,2.128,-0.000557,-0.002795,
2129,2.129,0.005070,0.003101,
2130,2.130,0.002074,0.013061,
2131,2.131,0.004848,0.008988,
2132,2.132,0.005748,0.005250,
2133,2.133,0.000532,0.002030,
2134,2.134,0.006996,0.003041,
2135,2.135,0.001131,0.002204,
2136,2.136,0.006430,0.004749,
2137,2.137,0.008501,0.005436,
2138,2.138,0.000266,0.003410,
2139,2.139,-0.000694,0.001717,
2140,2.140,-0.001659,0.008146,
2141,2.141,-0.004317,0.008983,
2142,2.142,-0.005115,0.003731,
2143,2.143,-0.001360,0.007283,
2144,2.144,-0.003355,0.003065,
2145,2.145,-0.005008,-0.002164,
2146,2.146,-0.002107,-0.008590,
2147,2.147,-0.007835,-0.000813,
2148,2.148,-0.002558,0.004435,
2149,2.149,-0.004584,-0.004018,
2150,2.150,-0.002884,-0.005016,
2151,2.151,0.005942,-0.003968,
2152,2.152,-0.000329,0.002489,
2153,2.153,-0.005883,0.005067,
2154,2.154,-0.000642,0.005786,
2155,2.155,-0.001510,-0.004825,
2156,2.156,0.004411,0.002842,
2157,2.157,0.000673,0.001534,
2158,2.158,0.001341,-0.002136,
2159,2.159,-0.000345,-0.003087,
2160,2.160,-0.006770,-0.002005,
2161,2.161,0.001007,0.004484,
2162,2.162,-0.002036,0.000318,
2163,2.163,-0.002892,-0.000293,
2164,2.164,-0.002042,0.001798,
2165,2.165,-0.005787,0.003565,
2166,2.166,-0.002256,0.005326,
2167,2.167,-0.001782,0.004877,
2168,2.168,-0.005880,-0.001996,
2169,2.169,-0.000176,-0.000926,
2170,2.170,-0.002426,-0.000030,
2171,2.171,-0.001800,-0.002518,
2172,2.172,-0.001351,-0.001802,
2173,2.173,0.007382,-0.003808,
2174,2.174,-0.001456,-0.005471,
2175,2.175,0.004076,-0.005959,
2176,2.176,0.005022,-0.003399,
2177,2.177,0.002250,-0.003701,
2178,2.178,-0.003723,-0.003320,
2179,2.179,-0.007517,-0.009037,
2180,2.180,-0.001156,-0.003071,
2181,2.181,0.011620,-0.006745,
2182,2.182,0.005974,-0.003165,
2183,2.183,-0.005929,-0.010075,
2184,2.184,-0.001435,-0.005503,
2185,2.185,0.002549,-0.006347,
2186,2.186,-0.001242,0.000592,
2187,2.187,-0.006905,0.005173,
2188,2.188,-0.001741,0.002637,
2189,2.189,-0.000983,0.006351,
2190,2.190,-0.000231,0.004308,
2191,2.191,0.008137,0.004797,
2192,2.192,0.002476,-0.002833,
2193,2.193,0.001381,-0.001845,
2194,2.194,0.005870,0.006585,
2195,2.195,0.001561,0.009765,
2196,2.196,0.000130,0.004814,
2197,2.197,0.000739,0.005782,
2198,2.198,0.011328,0.001176,
2199,2.199,-0.011736,-0.008337,
2200,2.200,0.011210,-0.004665,
2201,2.201,-0.009639,-0.010293,
2202,2.202,-0.001570,-0.005092,
2203,2.203,0.010731,-0.000565,
2204,2.204,-0.004883,-0.006532,
2205,2.205,0.001170,0.000359,
2206,2.206,-0.004452,-0.002396,
2207,2.207,-0.009564,-0.004978,
2208,2.208,-0.005024,-0.004351,
2209,2.209,-0.001002,0.004898,
2210,2.210,-0.012356,-0.001411,
2211,2.211,0.001484,-0.000453,
2212,2.212,-0.011552,0.004747,
2213,2.213,0.003651,-0.003761,
2214,2.214,-0.002439,-0.000580,
2215,2.215,0.006854,0.006668,
2216,2.216,0.005154,0.005791,
2217,2.217,0.009727,0.009990,
2218,2.218,0.008385,0.007767,
2219,2.219,0.004682,0.004181,
2220,2.220,0.005719,0.007197,
2221,2.221,0.002702,0.013601,
2222,2.222,-0.003698,0.009344,
2223,2.223,0.002258,0.010005,
2224,2.224,0.009235,0.005088,
2225,2.225,0.004709,-0.003224,
2226,2.226,-0.001171,-0.011027,
2227,2.227,0.005811,-0.010031,
2228,2.228,0.003149,-0.012754,
2229,2.229,0.007425,-0.010217,
2230,2.230,-0.004022,-0.001757,
2231,2.231,-0.005660,-0.004960,
2232,2.232,-0.001025,0.004520,
2233,2.233,0.003096,0.003352,
2234,2.234,-0.005647,0.000140,
2235,2.235,0.004734,-0.007118,
2236,2.236,0.003454,-0.000672,
2237,2.237,0.002332,0.001894,
2238,2.238,0.005602,0.002588,
2239,2.239,0.002619,0.006159,
2240,2.240,-0.005773,0.001952,
2241,2.241,-0.002495,0.002479,
2242,2.242,0.000629,0.003023,
2243,2.243,0.001549,0.001878,
2244,2.244,0.000767,0.003948,
2245,2.245,-0.002884,0.001455,
2246,2.246,-0.002146,0.000483,
2247,2.247,-0.003774,0.002208,
2248,2.248,-0.000837,0.002905,
2249,2.249,-0.008554,-0.000465,
2250,2.250,0.004017,-0.000798,
2251,2.251,-0.001007,0.000395,
2252,2.252,0.000594,0.003965,
2253,2.253,-0.003424,0.001785,
2254,2.254,0.000364,-0.002936,
2255,2.255,0.003622,0.000122,
2256,2.256,-0.003609,0.001835,
2257,2.257,0.004908,0.002365,
2258,2.258,-0.005366,-0.000661,
2259,2.259,0.001630,0.004956,
2260,2.260,-0.004559,-0.000230,
2261,2.261,0.003269,0.000490,
2262,2.262,-0.008173,-0.008927,
2263,2.263,0.002531,-0.010236,
2264,2.264,0.001249,-0.003944,
2265,2.265,-0.002413,-0.002890,
2266,2.266,-0.003364,-0.005879,
2267,2.267,-0.006379,-0.001266,
2268,2.268,-0.001758,-0.002074,
2269,2.269,-0.004265,-0.002724,
2270,2.270,-0.000500,0.000852,
2271,2.271,-0.002534,-0.004880,
2272,2.272,0.000593,-0.005533,
2273,2.273,-0.003163,0.003779,
2274,2.274,0.002550,0.004983,
2275,2.275,0.000348,0.006037,
2276,2.276,0.001051,0.005035,
2277,2.277,-0.002023,-0.003423,
2278,2.278,-0.006079,-0.004426,
2279,2.279,0.001659,-0.003405,
2280,2.280,0.000622,-0.000689,
2281,2.281,0.001567,-0.001521,
2282,2.282,0.000665,0.005426,
2283,2.283,-0.000215,0.000868,
2284,2.284,-0.003994,0.001716,
2285,2.285,0.002340,-0.000490,
2286,2.286,0.004800,0.008794,
2287,2.287,0.004050,0.005061,
2288,2.288,0.001925,0.004038,
2289,2.289,0.003528,0.003016,
2290,2.290,-0.001800,-0.007304,
2291,2.291,-0.002583,-0.011375,
2292,2.292,0.003050,-0.007672,
2293,2.293,0.000738,-0.004485,
2294,2.294,0.002677,-0.001477,
2295,2.295,-0.000484,0.001201,
2296,2.296,0.001107,0.008949,
2297,2.297,0.003018,0.009433,
2298,2.298,-0.003878,0.008387,
2299,2.299,0.010049,0.007514,
2300,2.300,-0.020685,-0.000297,
2301,2.301,0.009987,0.002715,
2302,2.302,-0.001974,0.007234,
2303,2.303,0.001470,0.004658,
2304,2.304,0.004565,0.002424,
2305,2.305,-0.010435,-0.001177,
2306,2.306,-0.002416,0.000458,
2307,2.307,-0.009803,-0.008388,
2308,2.308,-0.012118,-0.017241,
2309,2.309,-0.002082,-0.009522,
2310,2.310,-0.004050,-0.014824,
2311,2.311,-0.002467,-0.002706,
2312,2.312,-0.010173,-0.001075,
2313,2.313,-0.006218,-0.002658,
2314,2.314,-0.005130,-0.009653,
2315,2.315,0.011865,-0.003442,
2316,2.316,-0.005473,0.002103,
2317,2.317,0.005605,0.005112,
2318,2.318,-0.008680,0.002376,
2319,2.319,0.019158,0.004886,
2320,2.320,-0.040953,0.002656,
2321,2.321,-0.170431,0.006186,
2322,2.322,0.070233,-0.003311,
2323,2.323,0.037374,-0.018564,
2324,2.324,0.007547,-0.004383,
2325,2.325,0.034569,0.001178,
2326,2.326,0.010007,-0.003924,
2327,2.327,0.032304,0.000616,
2328,2.328,0.011976,0.001945,
2329,2.329,0.030376,0.003124,
2330,2.330,0.013608,0.002110,
2331,2.331,-0.001626,0.007352,
2332,2.332,0.012235,0.008197,
2333,2.333,0.024747,0.009053,
2334,2.334,0.013245,0.011259,
2335,2.335,0.002939,0.006362,
2336,2.336,0.012431,0.003331,
2337,2.337,0.003827,0.000478,
2338,2.338,-0.003928,-0.003056,
2339,2.339,0.003202,0.000007,
2340,2.340,0.009658,0.002898,
2341,2.341,0.003941,0.006454,
2342,2.342,-0.011923,0.008661,
2343,2.343,0.002486,0.002243,
2344,2.344,-0.010672,0.001413,
2345,2.345,0.001232,-0.006346,
2346,2.346,0.004841,-0.001084,
2347,2.347,-0.004910,-0.003768,
2348,2.348,-0.007728,-0.004591,
2349,2.349,0.000452,-0.002371,
2350,2.350,-0.001842,0.008306,
2351,2.351,-0.008385,0.000701,
2352,2.352,-0.002238,-0.003348,
2353,2.353,-0.003994,0.002924,
2354,2.354,-0.008997,0.008516,
2355,2.355,-0.004346,0.003285,
2356,2.356,0.002654,0.006014,
2357,2.357,-0.003552,0.006882,
2358,2.358,-0.002463,0.004697,
2359,2.359,-0.003418,0.002674,
2360,2.360,-0.006031,0.002195,
2361,2.361,-0.003396,-0.003021,
2362,2.362,0.000433,-0.002303,
2363,2.363,-0.003055,-0.003953,
2364,2.364,-0.007192,-0.007979,
2365,2.365,-0.001869,-0.008464,
2366,2.366,-0.006680,-0.007242,
2367,2.367,-0.000857,-0.006857,
2368,2.368,-0.009227,-0.003255,
2369,2.369,0.003362,-0.004396,
2370,2.370,-0.001625,-0.005539,
2371,2.371,-0.006160,0.000254,
2372,2.372,0.003424,0.006218,
2373,2.373,0.002407,0.001005,
2374,2.374,-0.003064,0.004571,
2375,2.375,0.000065,0.002916,
2376,2.376,-0.000684,-0.002286,
2377,2.377,0.007166,-0.012911,
2378,2.378,0.001995,-0.011356,
2379,2.379,-0.002545,-0.004386,
2380,2.380,0.001731,-0.003174,
2381,2.381,0.001071,-0.004161,
2382,2.382,-0.000957,-0.003124,
2383,2.383,-0.006700,-0.002258,
2384,2.384,-0.002963,-0.004783,
2385,2.385,-0.000913,-0.002575,
2386,2.386,-0.000417,-0.001909,
2387,2.387,0.001260,-0.000229,
2388,2.388,0.002758,0.001440,
2389,2.389,-0.002348,0.004961,
2390,2.390,-0.000346,0.002725,
2391,2.391,0.009107,0.005573,
2392,2.392,0.005024,0.005207,
2393,2.393,-0.008897,0.003479,
2394,2.394,-0.003338,0.007842,
2395,2.395,-0.001686,0.007300,
2396,2.396,0.002856,0.005736,
2397,2.397,-0.001226,0.004514,
2398,2.398,-0.000585,0.002954,
2399,2.399,-0.001791,0.005793,
2400,2.400,0.015278,0.004751,
2401,2.401,-0.021961,0.005063,
2402,2.402,0.004576,0.003346,
2403,2.403,-0.000183,-0.000414,
2404,2.404,0.004186,-0.007222,
2405,2.405,0.015988,-0.004550,
2406,2.406,-0.002132,-0.002048,
2407,2.407,0.007655,0.000119,
2408,2.408,-0.007249,-0.006353,
2409,2.409,-0.009976,-0.005545,
2410,2.410,-0.012369,-0.004906,
2411,2.411,0.012309,-0.002917,
2412,2.412,-0.004112,0.001275,
2413,2.413,0.004666,0.005316,
2414,2.414,0.001942,-0.001469,
2415,2.415,0.004310,-0.004201,
2416,2.416,-0.002276,-0.005073,
2417,2.417,-0.000240,-0.002892,
2418,2.418,0.001624,-0.000881,
2419,2.419,0.003320,-0.003952,
2420,2.420,0.004851,-0.003468,
2421,2.421,0.000790,-0.001956,
2422,2.422,0.004505,0.002287,
2423,2.423,-0.003274,-0.004120,
2424,2.424,-0.002250,-0.003226,
2425,2.425,-0.004956,-0.000985,
2426,2.426,-0.000720,0.001082,
2427,2.427,0.009260,-0.000587,
2428,2.428,-0.000375,0.002298,
2429,2.429,0.003352,-0.000217,
2430,2.430,0.000135,0.004038,
2431,2.431,0.001155,0.002381,
2432,2.432,-0.001548,0.004956,
2433,2.433,-0.014397,0.004657,
2434,2.434,-0.001370,0.010270,
2435,2.435,0.003706,0.005068,
2436,2.436,0.002198,0.008661,
2437,2.437,0.000861,0.009224,
2438,2.438,0.002059,0.012139,
2439,2.439,-0.001139,0.004377,
2440,2.440,-0.004182,0.003390,
2441,2.441,0.004280,0.006463,
2442,2.442,-0.003489,0.000060,
2443,2.443,-0.000440,-0.002456,
2444,2.444,-0.001289,-0.001758,
2445,2.445,-0.002133,-0.001058,
2446,2.446,0.001588,-0.002721,
2447,2.447,-0.007710,-0.002189,
2448,2.448,-0.003983,-0.006904,
2449,2.449,-0.000767,-0.001139,
2450,2.450,-0.003807,-0.006362,
2451,2.451,0.002634,0.000089,
2452,2.452,0.005159,0.006039,
2453,2.453,0.008881,0.002345,
2454,2.454,-0.000401,-0.001191,
2455,2.455,0.005858,-0.001696,
2456,2.456,-0.001900,0.004740,
2457,2.457,0.001149,-0.001175,
2458,2.458,0.003853,-0.001847,
2459,2.459,-0.000386,0.000189,
2460,2.460,-0.002582,-0.004022,
2461,2.461,0.003864,-0.012795,
2462,2.462,0.001365,-0.009035,
2463,2.463,-0.010122,-0.003408,
2464,2.464,-0.011793,-0.000331,
2465,2.465,-0.007208,-0.001159,
2466,2.466,-0.000255,0.001396,
2467,2.467,-0.003965,0.009869,
2468,2.468,0.001644,0.006673,
2469,2.469,0.004697,-0.000578,
2470,2.470,0.005572,-0.010880,
2471,2.471,0.004767,-0.009520,
2472,2.472,-0.000449,-0.025925,
2473,2.473,0.001602,-0.014750,
2474,2.474,-0.000060,-0.008656,
2475,2.475,0.004024,0.000657,
2476,2.476,0.002527,0.005746,
2477,2.477,0.000382,0.001195,
2478,2.478,0.002477,0.005271,
2479,2.479,0.000668,0.001573,
2480,2.480,0.000373,0.000570,
2481,2.481,-0.001951,0.001597,
2482,2.482,-0.000558,0.008033,
2483,2.483,0.003372,0.000263,
2484,2.484,-0.004208,0.003316,
2485,2.485,-0.003148,-0.005144,
2486,2.486,-0.000400,0.007371,
2487,2.487,-0.001207,0.019205,
2488,2.488,0.005773,0.011583,
2489,2.489,0.004954,0.007505,
2490,2.490,0.002460,0.008672,
2491,2.491,0.004710,0.007634,
2492,2.492,0.001211,0.004558,
2493,2.493,0.001758,0.003686,
2494,2.494,0.004687,-0.002271,
2495,2.495,0.002194,-0.001625,
2496,2.496,0.000032,-0.000975,
2497,2.497,0.002120,0.002037,
2498,2.498,0.000299,-0.002061,
2499,2.499,0.002723,-0.004805,
2500,2.500,-0.001113,-0.008397,
2501,2.501,0.006715,-0.007253,
2502,2.502,-0.010314,-0.001713,
2503,2.503,0.006997,0.003491,
2504,2.504,-0.004109,0.002776,
2505,2.505,-0.002029,0.004429,
2506,2.506,0.007323,0.004894,
2507,2.507,0.002286,0.000121,
2508,2.508,-0.005281,-0.006863,
2509,2.509,-0.012180,-0.007756,
2510,2.510,-0.008427,-0.013732,
2511,2.511,-0.002812,-0.013107,
2512,2.512,0.000264,-0.002499,
2513,2.513,0.001132,0.002012,
2514,2.514,0.001995,0.000608,
2515,2.515,0.001346,0.001749,
2516,2.516,-0.005058,0.000693,
2517,2.517,0.007829,-0.002398,
2518,2.518,-0.005169,0.000276,
2519,2.519,-0.010222,0.006153,
2520,2.520,-0.002572,0.006779,
2521,2.521,0.004387,0.003168,
2522,2.522,-0.004388,0.001427,
2523,2.523,0.001198,-0.001507,
2524,2.524,0.000190,-0.004076,
2525,2.525,-0.013850,-0.004447,
2526,2.526,-0.011816,-0.005653,
2527,2.527,-0.006235,-0.009218,
2528,2.528,0.002207,-0.002299,
2529,2.529,0.000665,-0.001303,
2530,2.530,0.004712,-0.000482,
2531,2.531,0.003507,-0.003050,
2532,2.532,0.002458,-0.002407,
2533,2.533,0.003449,0.005345,
2534,2.534,0.008007,0.000056,
2535,2.535,0.007130,0.002723,
2536,2.536,0.001849,0.001835,
2537,2.537,0.012477,0.005522,
2538,2.538,-0.001420,-0.002282,
2539,2.539,-0.007025,0.000726,
2540,2.540,-0.001979,0.005249,
2541,2.541,0.002546,-0.002572,
2542,2.542,-0.004438,0.002642,
2543,2.543,0.001765,-0.000089,
2544,2.544,0.004925,-0.002649,
2545,2.545,-0.006633,0.001049,
2546,2.546,0.000915,0.004583,
2547,2.547,-0.006080,0.001518,
2548,2.548,-0.002422,0.005559,
2549,2.549,0.000712,0.003014,
2550,2.550,-0.002399,0.007239,
2551,2.551,-0.001623,0.006732,
2552,2.552,-0.002531,0.000969,
2553,2.553,-0.003280,-0.001233,
2554,2.554,0.000190,0.000796,
2555,2.555,0.001842,0.000286,
2556,2.556,-0.002288,0.003173,
2557,2.557,0.003408,0.001666,
2558,2.558,0.002664,0.006753,
2559,2.559,-0.000967,0.001855,
2560,2.560,0.003183,-0.003889,
2561,2.561,0.004807,0.004580,
2562,2.562,0.000015,0.003579,
2563,2.563,-0.005791,0.000571,
2564,2.564,-0.000597,-0.002089,
2565,2.565,-0.001324,0.002194,
2566,2.566,-0.001884,-0.002996,
2567,2.567,0.003300,0.000614,
2568,2.568,-0.007399,0.000172,
2569,2.569,0.000165,0.000755,
2570,2.570,-0.001247,-0.002717,
2571,2.571,0.004960,-0.002984,
2572,2.572,0.001699,-0.008495,
2573,2.573,0.002651,-0.001496,
2574,2.574,-0.000099,-0.002283,
2575,2.575,0.000715,-0.004761,
2576,2.576,0.005932,-0.005370,
2577,2.577,0.006575,-0.000393,
2578,2.578,-0.001756,0.000190,
2579,2.579,0.001434,0.003137,
2580,2.580,0.006648,0.005753,
2581,2.581,-0.001829,0.004642,
2582,2.582,-0.009635,0.008602,
2583,2.583,-0.000174,0.005117,
2584,2.584,0.003527,0.002144,
2585,2.585,-0.002068,0.004236,
2586,2.586,-0.005125,0.000748,
2587,2.587,-0.004299,0.003024,
2588,2.588,-0.001780,0.004285,
2589,2.589,0.003442,0.000796,
2590,2.590,0.005444,-0.006068,
2591,2.591,0.005917,-0.009053,
2592,2.592,0.003003,-0.008152,
2593,2.593,0.002468,-0.007257,
2594,2.594,0.005485,-0.006539,
2595,2.595,-0.000977,-0.001577,
2596,2.596,0.001694,0.001505,
2597,2.597,0.009442,-0.006069,
2598,2.598,-0.000070,-0.005016,
2599,2.599,-0.001276,-0.005831,
2600,2.600,-0.001457,0.006540,
2601,2.601,-0.004678,0.005714,
2602,2.602,0.011038,0.007932,
2603,2.603,-0.022646,0.008623,
2604,2.604,0.001515,0.000339,
2605,2.605,-0.002907,-0.000671,
2606,2.606,0.000967,0.000349,
2607,2.607,0.004489,0.001209,
2608,2.608,0.001243,0.003744,
2609,2.609,-0.001655,0.001549,
2610,2.610,-0.004403,0.003570,
2611,2.611,-0.002057,-0.003387,
2612,2.612,-0.004275,-0.004246,
2613,2.613,-0.002275,-0.008496,
2614,2.614,-0.000443,-0.004802,
2615,2.615,0.001229,-0.005507,
2616,2.616,-0.003356,-0.009757,
2617,2.617,-0.004725,-0.011487,
2618,2.618,0.001530,-0.007976,
2619,2.619,0.002534,-0.001077,
2620,2.620,0.003552,-0.002121,
2621,2.621,0.008109,0.002415,
2622,2.622,-0.001372,0.004925,
2623,2.623,-0.007636,0.002692,
2624,2.624,-0.015412,-0.000893,
2625,2.625,-0.003925,-0.002613,
2626,2.626,0.006738,-0.004334,
2627,2.627,-0.000189,0.003418,
2628,2.628,0.003541,0.000187,
2629,2.629,-0.002036,0.003214,
2630,2.630,0.001017,0.004034,
2631,2.631,-0.007416,0.004863,
2632,2.632,0.000370,0.004176,
2633,2.633,-0.002658,0.006204,
2634,2.634,-0.003475,0.003147,
2635,2.635,-0.000896,-0.005680,
2636,2.636,0.004373,-0.004519,
2637,2.637,-0.002033,-0.001318,
2638,2.638,0.000537,-0.004378,
2639,2.639,0.009032,0.004069,
2640,2.640,0.012295,0.000847,
2641,2.641,0.000854,0.006066,
2642,2.642,0.005490,0.006880,
2643,2.643,0.009602,-0.006005,
2644,2.644,0.003403,0.007001,
2645,2.645,0.006676,0.005300,
2646,2.646,0.005718,0.000736,
2647,2.647,-0.002668,0.004797,
2648,2.648,-0.005809,0.005979,
2649,2.649,-0.008799,0.004974,
2650,2.650,-0.000291,0.001940,
2651,2.651,0.002968,-0.000741,
2652,2.652,0.008252,0.001814,
2653,2.653,0.005593,0.001160,
2654,2.654,0.001388,-0.000843,
2655,2.655,0.006663,-0.006575,
2656,2.656,0.010272,0.001892,
2657,2.657,0.000835,-0.001310,
2658,2.658,0.010553,0.001749,
2659,2.659,-0.000721,0.004473,
2660,2.660,-0.002200,0.001956,
2661,2.661,0.001904,0.004173,
2662,2.662,-0.001777,0.003509,
2663,2.663,-0.002773,0.001838,
2664,2.664,-0.003749,-0.002200,
2665,2.665,-0.004559,0.004584,
2666,2.666,-0.007066,0.007317,
2667,2.667,-0.006364,0.001434,
2668,2.668,-0.008369,-0.003769,
2669,2.669,0.001142,-0.004397,
2670,2.670,0.002538,-0.006033,
2671,2.671,-0.001151,-0.003115,
2672,2.672,-0.006698,0.000482,
2673,2.673,0.007019,-0.002521,
2674,2.674,-0.006003,-0.002818,
2675,2.675,-0.004298,-0.001758,
2676,2.676,-0.002733,-0.005611,
2677,2.677,-0.004039,-0.004039,
2678,2.678,-0.002831,0.002942,
2679,2.679,-0.008393,-0.002259,
2680,2.680,0.001105,-0.006788,
2681,2.681,-0.007683,-0.009295,
2682,2.682,-0.006657,-0.004022,
2683,2.683,-0.009692,0.006662,
2684,2.684,0.000617,0.002119,
2685,2.685,0.001968,-0.004800,
2686,2.686,-0.001756,-0.001076,
2687,2.687,-0.000749,-0.002087,
2688,2.688,-0.003820,-0.005135,
2689,2.689,-0.010274,0.005183,
2690,2.690,-0.011135,0.009245,
2691,2.691,0.000344,0.008051,
2692,2.692,-0.004776,0.004818,
2693,2.693,-0.000252,-0.000448,
2694,2.694,-0.001644,-0.003186,
2695,2.695,-0.007937,0.001012,
2696,2.696,-0.002405,0.000304,
2697,2.697,0.004820,-0.004639,
2698,2.698,0.007476,-0.002992,
2699,2.699,0.009976,-0.003546,
2700,2.700,0.010589,0.001144,
2701,2.701,0.012390,-0.001618,
2702,2.702,0.007435,-0.003363,
2703,2.703,0.016837,-0.002907,
2704,2.704,-0.004028,0.004818,
2705,2.705,0.010787,0.003741,
2706,2.706,-0.013969,0.002649,
2707,2.707,-0.004225,0.001735,
2708,2.708,0.004491,-0.000872,
2709,2.709,0.001707,0.001254,
2710,2.710,0.004001,0.001856,
2711,2.711,0.015098,-0.002454,
2712,2.712,0.000829,-0.004227,
2713,2.713,0.002616,0.003465,
2714,2.714,0.004248,-0.002209,
2715,2.715,0.002653,-0.009585,
2716,2.716,0.001234,-0.008833,
2717,2.717,-0.005087,-0.008080,
2718,2.718,-0.008348,-0.005975,
2719,2.719,-0.003156,0.001708,
2720,2.720,-0.004043,0.002624,
2721,2.721,0.001852,0.003385,
2722,2.722,0.004029,0.000764,
2723,2.723,-0.006660,-0.004562,
2724,2.724,-0.017335,-0.001101,
2725,2.725,-0.013306,-0.008125,
2726,2.726,-0.001993,-0.001778,
2727,2.727,-0.000486,-0.002708,
2728,2.728,-0.007443,0.000931,
2729,2.729,0.003890,0.004410,
2730,2.730,-0.003719,0.002638,
2731,2.731,0.000366,0.000865,
2732,2.732,0.009181,0.001299,
2733,2.733,0.001413,0.001577,
2734,2.734,0.000420,0.004411,
2735,2.735,0.005022,0.002495,
2736,2.736,0.009288,0.006328,
2737,2.737,0.007129,0.001551,
2738,2.738,0.000728,0.002017,
2739,2.739,0.004995,0.004855,
2740,2.740,0.007233,0.009558,
2741,2.741,0.005241,0.006488,
2742,2.742,0.001060,0.002393,
2743,2.743,-0.007693,0.005919,
2744,2.744,0.003676,0.001663,
2745,2.745,-0.000863,-0.000059,
2746,2.746,-0.004886,0.003471,
2747,2.747,-0.013651,0.002257,
2748,2.748,0.003467,-0.001657,
2749,2.749,0.005863,-0.000153,
2750,2.750,-0.000712,-0.004392,
2751,2.751,0.013533,-0.004903,
2752,2.752,0.000550,-0.003383,
2753,2.753,0.005648,-0.001191,
2754,2.754,-0.001946,0.003555,
2755,2.755,0.004992,0.001882,
2756,2.756,0.006155,-0.000971,
2757,2.757,0.007183,0.001585,
2758,2.758,-0.002323,0.001938,
2759,2.759,-0.006055,0.003147,
2760,2.760,-0.007094,0.002153,
2761,2.761,0.002344,0.004548,
2762,2.762,-0.006481,0.003562,
2763,2.763,0.003805,0.005449,
2764,2.764,-0.000285,0.003122,
2765,2.765,-0.001477,0.002144,
2766,2.766,-0.007095,-0.002043,
2767,2.767,-0.001895,-0.001493,
2768,2.768,-0.001090,-0.000948,
2769,2.769,-0.008918,-0.008684,
2770,2.770,-0.009989,-0.005406,
2771,2.771,-0.003629,-0.002314,
2772,2.772,-0.002840,0.002307,
2773,2.773,0.000807,0.001514,
2774,2.774,-0.002823,-0.002162,
2775,2.775,-0.002395,-0.000087,
2776,2.776,0.002773,0.001644,
2777,2.777,-0.007958,0.000001,
2778,2.778,-0.009556,0.002582,
2779,2.779,-0.013683,0.002290,
2780,2.780,-0.010057,-0.002400,
2781,2.781,-0.002469,-0.004048,
2782,2.782,-0.005551,-0.008084,
2783,2.783,-0.004802,-0.000276,
2784,2.784,-0.003996,-0.001271,
2785,2.785,-0.006247,-0.006490,
2786,2.786,0.004348,-0.003765,
2787,2.787,-0.003304,-0.004591,
2788,2.788,-0.004710,0.000662,
2789,2.789,-0.001029,-0.001354,
2790,2.790,-0.000031,0.004409,
2791,2.791,0.000966,-0.002526,
2792,2.792,0.009402,-0.003379,
2793,2.793,0.010388,0.000835,
2794,2.794,0.000894,0.000153,
2795,2.795,0.007160,0.006556,
2796,2.796,0.008179,0.000603,
2797,2.797,0.009225,0.001253,
2798,2.798,0.010091,-0.002332,
2799,2.799,-0.002723,-0.000679,
2800,2.800,-0.008249,-0.001234,
2801,2.801,0.000275,0.003455,
2802,2.802,0.005433,-0.004546,
2803,2.803,0.000936,-0.004077,
2804,2.804,0.021829,-0.005800,
2805,2.805,-0.017150,-0.001077,
2806,2.806,0.020173,0.001956,
2807,2.807,0.005898,-0.004481,
2808,2.808,0.010418,0.001434,
2809,2.809,0.014434,-0.000760,
2810,2.810,0.011001,-0.002789,
2811,2.811,0.001313,0.000254,
2812,2.812,-0.001429,-0.003811,
2813,2.813,-0.014987,-0.002302,
2814,2.814,0.002430,-0.006543,
2815,2.815,0.004796,-0.002502,
2816,2.816,-0.001130,0.003231,
2817,2.817,0.000896,0.001015,
2818,2.818,0.009531,-0.005432,
2819,2.819,0.014281,0.005718,
2820,2.820,0.007533,0.001125,
2821,2.821,0.016520,-0.000243,
2822,2.822,0.008951,0.000943,
2823,2.823,0.003917,0.004156,
2824,2.824,0.004984,0.003141,
2825,2.825,0.009427,0.000446,
2826,2.826,0.008969,0.003004,
2827,2.827,-0.001447,0.002353,
2828,2.828,0.021783,0.001706,
2829,2.829,0.071581,0.001222,
2830,2.830,-0.034929,0.010045,
2831,2.831,0.011156,0.006345,
2832,2.832,-0.030219,0.007389,
2833,2.833,-0.017452,0.002173,
2834,2.834,-0.005698,0.003060,
2835,2.835,-0.015761,0.002253,
2836,2.836,-0.006039,0.002968,
2837,2.837,-0.014418,-0.001894,
2838,2.838,-0.021955,-0.000145,
2839,2.839,-0.014600,0.006351,
2840,2.840,-0.007921,0.005561,
2841,2.841,-0.001922,0.004945,
2842,2.842,-0.006927,-0.001427,
2843,2.843,-0.011419,0.006417,
2844,2.844,-0.006792,0.007487,
2845,2.845,-0.018422,0.002981,
2846,2.846,-0.007393,0.003895,
2847,2.847,-0.003983,0.003283,
2848,2.848,-0.006666,0.008253,
2849,2.849,-0.009196,0.004092,
2850,2.850,-0.006662,0.004675,
2851,2.851,0.000084,-0.003043,
2852,2.852,-0.001795,-0.006196,
2853,2.853,-0.007234,-0.013409,
2854,2.854,-0.002035,-0.014198,
2855,2.855,0.005711,-0.014982,
2856,2.856,-0.001123,-0.012718,
2857,2.857,-0.002207,-0.016194,
2858,2.858,0.005696,-0.010369,
2859,2.859,0.008828,-0.006567,
2860,2.860,0.011619,-0.001581,
2861,2.861,0.003892,0.002725,
2862,2.862,0.002915,0.003300,
2863,2.863,0.002101,0.005887,
2864,2.864,0.008039,0.004758,
2865,2.865,0.007378,0.001948,
2866,2.866,0.006712,0.004541,
2867,2.867,0.006204,0.002903,
2868,2.868,0.002145,0.007353,
2869,2.869,0.004665,0.003332,
2870,2.870,-0.002280,-0.003395,
2871,2.871,0.002907,0.003060,
2872,2.872,0.000150,0.002238,
2873,2.873,0.004304,-0.006200,
2874,2.874,0.003556,-0.007200,
2875,2.875,-0.007182,-0.006174,
2876,2.876,0.000354,-0.007023,
2877,2.877,-0.003786,0.000751,
2878,2.878,-0.002722,-0.000275,
2879,2.879,-0.003852,0.002408,
2880,2.880,0.003366,-0.001843,
2881,2.881,-0.005271,0.000355,
2882,2.882,-0.004372,-0.001669,
2883,2.883,-0.007579,0.001392,
2884,2.884,-0.003161,0.000882,
2885,2.885,0.000914,0.001383,
2886,2.886,-0.002952,-0.005570,
2887,2.887,-0.008017,-0.006594,
2888,2.888,-0.007656,0.001856,
2889,2.889,-0.006142,0.002859,
2890,2.890,-0.002744,0.001843,
2891,2.891,-0.005934,-0.000870,
2892,2.892,0.000356,0.006890,
2893,2.893,0.001049,0.001610,
2894,2.894,0.005124,0.000733,
2895,2.895,0.002776,-0.000148,
2896,2.896,-0.000923,0.000490,
2897,2.897,0.003155,-0.003091,
2898,2.898,-0.002233,-0.006162,
2899,2.899,0.001192,0.002611,
2900,2.900,0.000547,0.006293,
2901,2.901,0.002083,0.000670,
2902,2.902,0.005475,0.003665,
2903,2.903,0.002274,-0.000113,
2904,2.904,-0.004827,0.000682,
2905,2.905,0.010741,-0.005267,
2906,2.906,-0.018682,-0.005973,
2907,2.907,0.001103,-0.006678,
2908,2.908,-0.002626,-0.007214,
2909,2.909,0.007008,-0.005541,
2910,2.910,0.003960,0.002227,
2911,2.911,0.001070,0.010006,
2912,2.912,-0.001483,0.004749,
2913,2.913,0.004910,-0.005584,
2914,2.914,0.002673,0.004039,
2915,2.915,0.000623,0.005213,
2916,2.916,-0.004645,0.001986,
2917,2.917,0.005809,0.005023,
2918,2.918,-0.004033,0.007718,
2919,2.919,0.014709,0.008557,
2920,2.920,0.006387,0.006356,
2921,2.921,0.008541,0.005666,
2922,2.922,-0.002821,0.007347,
2923,2.923,-0.000986,0.004459,
2924,2.924,-0.006774,0.007988,
2925,2.925,-0.008647,0.008303,
2926,2.926,0.008081,0.006249,
2927,2.927,0.010095,0.008768,
2928,2.928,-0.012591,0.003507,
2929,2.929,0.002115,-0.008013,
2930,2.930,-0.011765,-0.016477,
2931,2.931,-0.004649,-0.021043,
2932,2.932,-0.002626,-0.011406,
2933,2.933,0.007354,-0.007686,
2934,2.934,-0.005842,-0.002089,
2935,2.935,0.009212,-0.007305,
2936,2.936,-0.005142,-0.009959,
2937,2.937,0.011454,-0.005689,
2938,2.938,0.000141,-0.007856,
2939,2.939,-0.002043,-0.005788,
2940,2.940,-0.004032,0.003727,
2941,2.941,0.000904,0.007832,
2942,2.942,-0.000760,0.006693,
2943,2.943,-0.002236,0.007755,
2944,2.944,-0.008608,0.004756,
2945,2.945,0.001588,-0.001626,
2946,2.946,-0.002585,-0.004100,
2947,2.947,-0.014034,-0.001834,
2948,2.948,-0.006526,0.004657,
2949,2.949,0.005890,0.005567,
2950,2.950,0.010865,0.006314,
2951,2.951,0.003154,0.008410,
2952,2.952,0.004408,0.002713,
2953,2.953,0.005509,-0.008729,
2954,2.954,0.002211,-0.003579,
2955,2.955,0.007363,0.001065,
2956,2.956,0.004582,0.002484,
2957,2.957,0.007040,0.001370,
2958,2.958,0.001712,0.002463,
2959,2.959,0.006599,-0.000487,
2960,2.960,-0.000383,0.008083,
2961,2.961,0.009899,0.007183,
2962,2.962,0.008505,0.010341,
2963,2.963,-0.002890,0.001986,
2964,2.964,-0.001404,0.001056,
2965,2.965,0.002615,0.000128,
2966,2.966,-0.001130,0.001058,
2967,2.967,-0.000132,0.000307,
2968,2.968,-0.001134,-0.004823,
2969,2.969,0.003426,0.000191,
2970,2.970,-0.004338,0.003341,
2971,2.971,-0.005350,0.003957,
2972,2.972,0.004980,0.006612,
2973,2.973,-0.010247,0.007067,
2974,2.974,-0.008186,0.009206,
2975,2.975,-0.002572,0.005095,
2976,2.976,-0.000842,0.009264,
2977,2.977,-0.002326,0.007838,
2978,2.978,-0.000907,0.001004,
2979,2.979,-0.007129,-0.004148,
2980,2.980,0.003250,0.002361,
2981,2.981,0.001936,-0.000095,
2982,2.982,0.003199,-0.006961,
2983,2.983,0.008858,-0.013312,
2984,2.984,-0.004730,-0.024393,
2985,2.985,0.000942,-0.013641,
2986,2.986,-0.000651,-0.003917,
2987,2.987,0.007048,-0.000109,
2988,2.988,-0.005355,-0.001034,
2989,2.989,0.006588,-0.001958,
2990,2.990,0.008215,-0.001026,
2991,2.991,0.001384,0.003294,
2992,2.992,-0.002226,0.001185,
2993,2.993,0.008216,0.001956,
2994,2.994,0.001414,-0.007421,
2995,2.995,0.002731,-0.005983,
2996,2.996,-0.000352,-0.002202,
2997,2.997,-0.001226,-0.001132,
2998,2.998,0.001615,0.001960,
2999,2.999,0.002606,0.006583,
3000,3.000,0.006487,0.010863,
3001,3.001,-0.001120,0.007177,
3002,3.002,0.000052,-0.003453,
3003,3.003,0.004783,-0.001917,
3004,3.004,0.003427,0.004002,
3005,3.005,-0.005888,0.002662,
3006,3.006,0.013220,-0.001043,
3007,3.007,-0.027727,-0.008809,
3008,3.008,0.001698,-0.014039,
3009,3.009,-0.003407,-0.007622,
3010,3.010,0.001485,-0.001731,
3011,3.011,0.014832,0.001967,
3012,3.012,0.003158,0.008360,
3013,3.013,0.006854,0.010866,
3014,3.014,-0.002812,0.011495,
3015,3.015,-0.005558,0.000786,
3016,3.016,-0.013528,-0.009930,
3017,3.017,-0.001045,-0.003071,
3018,3.018,-0.003105,-0.001963,
3019,3.019,0.003125,-0.005272,
3020,3.020,0.001400,-0.010611,
3021,3.021,0.006600,-0.008017,
3022,3.022,-0.010192,-0.003915,
3023,3.023,-0.007863,-0.007757,
3024,3.024,-0.005721,-0.001451,
3025,3.025,0.007410,0.004332,
3026,3.026,-0.007699,0.000457,
3027,3.027,0.002561,0.002344,
3028,3.028,0.000812,0.002699,
3029,3.029,0.009366,-0.000328,
3030,3.030,-0.007456,0.007296,
3031,3.031,-0.000761,0.008166,
3032,3.032,-0.014885,0.004972,
3033,3.033,-0.001773,0.000246,
3034,3.034,0.003381,0.004310,
3035,3.035,0.004960,-0.001110,
3036,3.036,-0.001915,-0.001948,
3037,3.037,0.001848,-0.003804,
3038,3.038,0.000879,-0.001091,
3039,3.039,0.001931,-0.000748,
3040,3.040,0.002818,-0.002105,
3041,3.041,-0.003066,-0.008715,
3042,3.042,-0.008285,-0.011605,
3043,3.043,-0.006236,-0.007554,
3044,3.044,0.003249,0.002255,
3045,3.045,-0.003679,0.000743,
3046,3.046,-0.002502,0.004298,
3047,3.047,-0.001491,-0.001437,
3048,3.048,-0.002523,-0.002615,
3049,3.049,-0.008969,0.003671,
3050,3.050,-0.001206,0.004381,
3051,3.051,-0.004283,0.004929,
3052,3.052,-0.005150,0.004109,
3053,3.053,-0.000946,-0.005509,
3054,3.054,-0.000308,-0.007003,
3055,3.055,-0.001038,-0.008325,
3056,3.056,-0.000580,-0.009481,
3057,3.057,0.008174,0.004070,
3058,3.058,-0.000692,0.009497,
3059,3.059,-0.003977,0.004270,
3060,3.060,-0.007037,0.005647,
3061,3.061,0.005091,-0.001417,
3062,3.062,-0.003404,-0.000348,
3063,3.063,0.007211,-0.001477,
3064,3.064,-0.005368,-0.000564,
3065,3.065,0.003038,0.007793,
3066,3.066,-0.001588,0.002114,
3067,3.067,-0.002987,0.007263,
3068,3.068,0.000691,0.006331,
3069,3.069,0.001649,0.014027,
3070,3.070,0.000578,0.016987,
3071,3.071,0.001388,0.006583,
3072,3.072,0.002210,0.002450,
3073,3.073,0.005900,0.008650,
3074,3.074,0.000947,0.009599,
3075,3.075,0.002606,0.000072,
3076,3.076,-0.001476,0.001226,
3077,3.077,0.006275,-0.006584,
3078,3.078,0.000667,-0.005593,
3079,3.079,0.001671,-0.010185,
3080,3.080,0.004368,-0.009356,
3081,3.081,0.000110,-0.005650,
3082,3.082,0.003814,-0.003639,
3083,3.083,0.005823,0.000571,
3084,3.084,0.002772,-0.001153,
3085,3.085,0.009186,0.006610,
3086,3.086,0.004965,0.005574,
3087,3.087,-0.000278,0.004552,
3088,3.088,0.000400,0.007255,
3089,3.089,-0.001293,0.011486,
3090,3.090,-0.000786,0.010819,
3091,3.091,-0.002303,0.004401,
3092,3.092,0.004630,-0.001519,
3093,3.093,-0.000614,-0.013024,
3094,3.094,0.005821,-0.004554,
3095,3.095,-0.001943,-0.009094,
3096,3.096,0.003314,0.000586,
3097,3.097,0.002486,-0.010723,
3098,3.098,-0.000038,-0.009188,
3099,3.099,0.006922,-0.010528,
3100,3.100,-0.007101,-0.001721,
3101,3.101,-0.005048,-0.004933,
3102,3.102,0.004274,-0.003910,
3103,3.103,0.009365,0.000664,
3104,3.104,-0.001259,0.003201,
3105,3.105,0.003169,0.008784,
3106,3.106,-0.003739,0.008103,
3107,3.107,0.015234,0.006072,
3108,3.108,-0.025842,0.007770,
3109,3.109,0.003436,0.002538,
3110,3.110,-0.001805,-0.002364,
3111,3.111,-0.006538,0.001871,
3112,3.112,0.006661,-0.003383,
3113,3.113,-0.005176,-0.002712,
3114,3.114,-0.001618,-0.008459,
3115,3.115,-0.011434,-0.010641,
3116,3.116,-0.002651,-0.005698,
3117,3.117,0.005437,-0.001444,
3118,3.118,0.007790,0.000280,
3119,3.119,-0.007806,0.001821,
3120,3.120,-0.009858,-0.000374,
3121,3.121,-0.011742,-0.002391,
3122,3.122,0.003466,0.003359,
3123,3.123,-0.002649,0.002500,
3124,3.124,-0.000821,-0.007496,
3125,3.125,-0.002568,-0.006157,
3126,3.126,0.001951,-0.005009,
3127,3.127,-0.007760,-0.001830,
3128,3.128,-0.001559,-0.004909,
3129,3.129,0.001591,0.001495,
3130,3.130,0.000501,0.004000,
3131,3.131,-0.002276,0.003289,
3132,3.132,-0.001509,0.009696,
3133,3.133,0.006860,0.003751,
3134,3.134,-0.005747,0.003061,
3135,3.135,-0.004158,-0.004720,
3136,3.136,0.000315,-0.003701,
3137,3.137,0.001568,-0.002850,
3138,3.138,0.002640,-0.005383,
3139,3.139,-0.000683,-0.003181,
3140,3.140,0.002239,0.001733,
3141,3.141,-0.000593,0.004788,
3142,3.142,-0.001559,0.000726,
3143,3.143,-0.002356,-0.002833,
3144,3.144,-0.001789,-0.007928,
3145,3.145,-0.002422,0.002714,
3146,3.146,0.001506,0.007274,
3147,3.147,-0.005387,0.005922,
3148,3.148,-0.002817,0.009642,
3149,3.149,-0.000414,0.012854,
3150,3.150,0.001666,0.005586,
3151,3.151,0.002204,0.004759,
3152,3.152,-0.006226,0.002239,
3153,3.153,-0.003127,0.001588,
3154,3.154,-0.002225,0.003642,
3155,3.155,-0.001493,0.001973,
3156,3.156,-0.000758,0.003683,
3157,3.157,0.004375,0.000157,
3158,3.158,0.006304,0.000525,
3159,3.159,0.003146,-0.002314,
3160,3.160,0.007093,0.003458,
3161,3.161,-0.000732,-0.000753,
3162,3.162,0.002397,-0.007660,
3163,3.163,-0.000707,-0.014061,
3164,3.164,0.007697,-0.019961,
3165,3.165,0.013215,-0.013008,
3166,3.166,-0.002563,-0.013828,
3167,3.167,0.008568,-0.004311,
3168,3.168,-0.001595,0.007063,
3169,3.169,-0.003454,-0.000515,
3170,3.170,-0.008546,0.000866,
3171,3.171,-0.004000,0.004630,
3172,3.172,0.000048,0.007894,
3173,3.173,0.008856,0.004900,
3174,3.174,0.001104,0.011376,
3175,3.175,0.008409,0.008878,
3176,3.176,0.002021,0.003667,
3177,3.177,-0.000466,-0.001199,
3178,3.178,0.004834,0.003062,
3179,3.179,-0.000022,0.005966,
3180,3.180,0.000551,0.000257,
3181,3.181,0.005861,0.004018,
3182,3.182,0.003908,-0.000859,
3183,3.183,0.007045,-0.010303,
3184,3.184,0.001900,-0.006217,
3185,3.185,-0.000046,-0.007363,
3186,3.186,0.003096,-0.006304,
3187,3.187,-0.000860,-0.003224,
3188,3.188,0.007038,-0.004041,
3189,3.189,0.006139,-0.006551,
3190,3.190,0.001019,-0.001278,
3191,3.191,0.003848,-0.000577,
3192,3.192,-0.007190,0.003680,
3193,3.193,0.006807,0.007764,
3194,3.194,0.005077,0.001021,
3195,3.195,0.003521,0.001875,
3196,3.196,0.008238,-0.000640,
3197,3.197,0.004324,0.003099,
3198,3.198,-0.001787,-0.000437,
3199,3.199,0.003949,-0.002101,
3200,3.200,0.007153,-0.001570,
3201,3.201,-0.003006,-0.004103,
3202,3.202,-0.001483,0.000982,
3203,3.203,-0.005053,0.003010,
3204,3.204,-0.001685,0.007234,
3205,3.205,-0.002548,-0.000384,
3206,3.206,0.003191,-0.004111,
3207,3.207,-0.008849,-0.007174,
3208,3.208,0.013288,0.001265,
3209,3.209,-0.031570,0.000233,
3210,3.210,0.000876,-0.002828,
3211,3.211,-0.004745,-0.003674,
3212,3.212,-0.009883,0.002241,
3213,3.213,0.004618,0.002906,
3214,3.214,-0.008477,-0.002024,
3215,3.215,-0.004489,-0.007800,
3216,3.216,-0.007934,-0.000875,
3217,3.217,-0.011071,0.003688,
3218,3.218,-0.002187,0.007911,
3219,3.219,0.006005,-0.003594,
3220,3.220,0.003697,-0.008679,
3221,3.221,0.001547,-0.004129,
3222,3.222,-0.008555,-0.002785,
3223,3.223,-0.002924,-0.001593,
3224,3.224,-0.004563,0.003997,
3225,3.225,-0.003017,0.000963,
3226,3.226,-0.007056,0.007402,
3227,3.227,0.006816,0.006568,
3228,3.228,0.001240,-0.000360,
3229,3.229,0.002920,0.002347,
3230,3.230,-0.001677,0.006577,
3231,3.231,-0.005769,0.005887,
3232,3.232,-0.002075,0.002325,
3233,3.233,0.003465,-0.007156,
3234,3.234,0.000376,-0.014099,
3235,3.235,0.001172,-0.005296,
3236,3.236,-0.003104,0.000290,
3237,3.237,0.000553,-0.000721,
3238,3.238,-0.004425,0.000120,
3239,3.239,0.001253,0.004352,
3240,3.240,-0.001021,0.002154,
3241,3.241,0.000911,0.000119,
3242,3.242,-0.000873,-0.001573,
3243,3.243,-0.001475,0.004865,
3244,3.244,-0.008333,0.000654,
3245,3.245,-0.002008,0.004383,
3246,3.246,-0.004653,0.000824,
3247,3.247,-0.005443,-0.006122,
3248,3.248,-0.004885,-0.003415,
3249,3.249,-0.004494,0.002503,
3250,3.250,-0.008657,-0.002740,
3251,3.251,-0.000983,0.002164,
3252,3.252,-0.000082,0.002675,
3253,3.253,0.000821,0.002192,
3254,3.254,-0.002005,0.000693,
3255,3.255,0.007359,0.007640,
3256,3.256,0.003516,0.004602,
3257,3.257,0.004425,0.001909,
3258,3.258,0.001260,-0.000614,
3259,3.259,0.003875,-0.007526,
3260,3.260,0.009667,-0.004809,
3261,3.261,-0.001951,-0.003951,
3262,3.262,0.006432,0.003003,
3263,3.263,0.007837,0.002184,
3264,3.264,-0.001880,-0.000312,
3265,3.265,0.004293,-0.002474,
3266,3.266,-0.001382,0.005341,
3267,3.267,-0.000447,0.006393,
3268,3.268,0.002196,0.005591,
3269,3.269,0.002990,0.008182,
3270,3.270,0.003630,0.002980,
3271,3.271,0.000035,-0.007634,
3272,3.272,-0.001701,-0.009105,
3273,3.273,0.007035,-0.007690,
3274,3.274,0.005815,-0.008805,
3275,3.275,0.009008,-0.011946,
3276,3.276,-0.002506,-0.008830,
3277,3.277,0.008120,-0.000302,
3278,3.278,0.009468,0.000779,
3279,3.279,0.005735,0.006089,
3280,3.280,0.000155,0.005321,
3281,3.281,0.003195,0.001172,
3282,3.282,0.000498,-0.002480,
3283,3.283,-0.003723,-0.005968,
3284,3.284,-0.008949,-0.001672,
3285,3.285,0.001723,0.001269,
3286,3.286,0.000227,0.009127,
3287,3.287,0.001622,0.003616,
3288,3.288,-0.002075,0.004701,
3289,3.289,0.005790,0.011207,
3290,3.290,0.000641,0.007074,
3291,3.291,-0.005788,0.001930,
3292,3.292,-0.001580,-0.001545,
3293,3.293,0.002145,0.001586,
3294,3.294,0.001454,0.010454,
3295,3.295,0.004504,0.009341,
3296,3.296,0.002812,0.003824,
3297,3.297,-0.003969,0.002873,
3298,3.298,-0.008550,0.000232,
3299,3.299,-0.004331,0.002843,
3300,3.300,-0.005014,-0.000813,
3301,3.301,-0.004355,-0.010065,
3302,3.302,-0.000125,-0.006289,
3303,3.303,-0.003006,0.004079,
3304,3.304,0.004763,0.002768,
3305,3.305,-0.000827,-0.003455,
3306,3.306,0.002198,-0.002400,
3307,3.307,-0.003400,-0.002705,
3308,3.308,-0.000714,0.006802,
3309,3.309,0.012100,0.003097,
3310,3.310,-0.015841,-0.000105,
3311,3.311,0.012031,-0.001098,
3312,3.312,-0.006119,-0.009546,
3313,3.313,-0.002943,-0.006327,
3314,3.314,0.005823,-0.005312,
3315,3.315,-0.002352,-0.000748,
3316,3.316,-0.009664,-0.001598,
3317,3.317,-0.007513,-0.005310,
3318,3.318,-0.009605,-0.003271,
3319,3.319,-0.004083,-0.003765,
3320,3.320,-0.002456,-0.004278,
3321,3.321,0.005102,-0.006837,
3322,3.322,-0.004606,-0.008054,
3323,3.323,-0.010936,-0.006067,
3324,3.324,-0.012024,-0.004239,
3325,3.325,0.003643,0.000968,
3326,3.326,-0.003021,0.001609,
3327,3.327,-0.001067,-0.001972,
3328,3.328,-0.006720,-0.006232,
3329,3.329,-0.001709,-0.004576,
3330,3.330,-0.009387,0.002163,
3331,3.331,-0.002521,0.002983,
3332,3.332,-0.003784,-0.002965,
3333,3.333,-0.000646,-0.002326,
3334,3.334,-0.005966,-0.001690,
3335,3.335,-0.014499,0.005206,
3336,3.336,0.002536,0.004308,
3337,3.337,-0.034740,0.000027,
3338,3.338,-0.029554,-0.010008,
3339,3.339,0.033483,-0.011407,
3340,3.340,0.042068,0.002432,
3341,3.341,0.018677,-0.003190,
3342,3.342,0.025725,0.008605,
3343,3.343,0.006398,0.003976,
3344,3.344,0.012101,0.007975,
3345,3.345,0.017299,0.004185,
3346,3.346,0.012527,-0.001464,
3347,3.347,0.008102,-0.004571,
3348,3.348,0.004179,0.003812,
3349,3.349,0.007693,0.006949,
3350,3.350,-0.002142,0.005869,
3351,3.351,0.000707,0.006644,
3352,3.352,0.003396,0.007412,
3353,3.353,-0.003879,0.006671,
3354,3.354,0.007282,0.004586,
3355,3.355,-0.002872,0.002842,
3356,3.356,-0.000998,-0.001265,
3357,3.357,0.007466,0.005469,
3358,3.358,-0.003178,0.002730,
3359,3.359,0.003774,-0.003226,
3360,3.360,0.000081,0.003667,
3361,3.361,-0.005500,0.008200,
3362,3.362,-0.010739,0.005621,
3363,3.363,-0.002249,0.003382,
3364,3.364,-0.010008,-0.000186,
3365,3.365,-0.006950,-0.007150,
3366,3.366,0.001529,-0.008021,
3367,3.367,0.000526,-0.012261,
3368,3.368,0.001572,-0.000775,
3369,3.369,-0.006857,0.004286,
3370,3.370,-0.001241,0.002753,
3371,3.371,-0.000212,0.006810,
3372,3.372,0.004392,0.000546,
3373,3.373,-0.003360,0.001571,
3374,3.374,-0.002300,-0.001447,
3375,3.375,-0.003112,-0.004101,
3376,3.376,-0.000520,0.001875,
3377,3.377,-0.005727,0.002612,
3378,3.378,-0.006354,-0.002243,
3379,3.379,-0.005796,-0.005247,
3380,3.380,0.003056,-0.008085,
3381,3.381,-0.000626,-0.003307,
3382,3.382,-0.001600,-0.003771,
3383,3.383,-0.002578,-0.000855,
3384,3.384,-0.008961,0.006962,
3385,3.385,-0.001148,0.008012,
3386,3.386,-0.000103,0.002820,
3387,3.387,0.000802,-0.003541,
3388,3.388,-0.005085,-0.009393,
3389,3.389,-0.002867,-0.007138,
3390,3.390,0.002103,-0.005062,
3391,3.391,-0.002068,0.003289,
3392,3.392,0.005584,0.004370,
3393,3.393,0.004586,0.011715,
3394,3.394,0.000027,0.007196,
3395,3.395,-0.004205,-0.000532,
3396,3.396,-0.002006,0.006794,
3397,3.397,0.002899,0.005981,
3398,3.398,-0.001339,0.000089,
3399,3.399,0.003875,0.002326,
3400,3.400,0.000296,0.003039,
3401,3.401,-0.005475,-0.001152,
3402,3.402,-0.001766,0.000573,
3403,3.403,0.004638,-0.000906,
3404,3.404,-0.008246,-0.005951,
3405,3.405,0.001037,-0.010817,
3406,3.406,-0.004060,-0.006551,
3407,3.407,-0.002555,0.002286,
3408,3.408,-0.001381,0.005716,
3409,3.409,0.002672,-0.000497,
3410,3.410,0.016531,0.005108,
3411,3.411,-0.011377,0.002081,
3412,3.412,0.000452,-0.008225,
3413,3.413,0.011263,0.004296,
3414,3.414,0.001449,0.005994,
3415,3.415,0.004310,-0.001617,
3416,3.416,-0.003811,0.002451,
3417,3.417,-0.001433,0.003649,
3418,3.418,0.000779,0.002647,
3419,3.419,0.014989,-0.000381,
3420,3.420,0.001962,0.002338,
3421,3.421,0.000278,-0.005427,
3422,3.422,-0.010369,-0.010658,
3423,3.423,-0.000708,-0.020959,
3424,3.424,-0.004412,-0.014006,
3425,3.425,0.003397,-0.012807,
3426,3.426,-0.003861,-0.005002,
3427,3.427,-0.006532,0.002287,
3428,3.428,-0.005669,0.006862,
3429,3.429,0.001282,0.007699,
3430,3.430,0.004013,0.007002,
3431,3.431,0.004881,0.004959,
3432,3.432,-0.000334,0.007994,
3433,3.433,0.004604,0.008499,
3434,3.434,0.000416,0.000714,
3435,3.435,-0.008343,-0.009611,
3436,3.436,-0.009488,-0.010976,
3437,3.437,0.007636,-0.004732,
3438,3.438,0.010048,0.003040,
3439,3.439,0.007881,0.002014,
3440,3.440,-0.002235,-0.004421,
3441,3.441,0.010838,-0.000201,
3442,3.442,-0.000963,0.009775,
3443,3.443,0.006690,0.005713,
3444,3.444,0.002682,0.002002,
3445,3.445,-0.003539,0.009773,
3446,3.446,-0.002484,0.008741,
3447,3.447,0.007021,0.006024,
3448,3.448,0.003340,0.005175,
3449,3.449,-0.006938,0.001447,
3450,3.450,-0.008242,0.002111,
3451,3.451,0.000588,-0.006209,
3452,3.452,-0.000391,0.001538,
3453,3.453,0.000663,-0.007965,
3454,3.454,-0.003865,-0.006808,
3455,3.455,-0.004680,-0.010053,
3456,3.456,-0.003969,-0.009056,
3457,3.457,-0.010361,-0.009922,
3458,3.458,-0.000845,0.002922,
3459,3.459,-0.012121,0.008485,
3460,3.460,-0.001408,0.010150,
3461,3.461,-0.000004,0.011658,
3462,3.462,-0.001154,0.004702,
3463,3.463,0.004454,0.003503,
3464,3.464,-0.000715,-0.004276,
3465,3.465,-0.001537,-0.007332,
3466,3.466,-0.002330,-0.006497,
3467,3.467,0.006159,-0.000577,
3468,3.468,0.002973,0.003146,
3469,3.469,0.001991,-0.001769,
3470,3.470,0.001199,0.001263,
3471,3.471,-0.001301,-0.006359,
3472,3.472,-0.003466,-0.005360,
3473,3.473,-0.006996,-0.004536,
3474,3.474,0.002507,-0.010484,
3475,3.475,-0.007091,-0.000522,
3476,3.476,0.004289,0.003528,
3477,3.477,0.005838,0.009786,
3478,3.478,0.001831,0.013005,
3479,3.479,0.008145,0.005750,
3480,3.480,0.000425,0.004917,
3481,3.481,-0.000556,-0.000994,
3482,3.482,-0.005081,0.001202,
3483,3.483,-0.004210,0.004755,
3484,3.484,0.001069,0.006457,
3485,3.485,0.003125,0.002402,
3486,3.486,0.000105,-0.005377,
3487,3.487,0.004184,-0.006384,
3488,3.488,0.004716,-0.005362,
3489,3.489,-0.001343,-0.000778,
3490,3.490,0.001240,0.000079,
3491,3.491,0.004992,-0.002125,
3492,3.492,-0.004278,-0.007035,
3493,3.493,0.002000,0.002434,
3494,3.494,-0.001188,0.001071,
3495,3.495,0.006116,-0.000122,
3496,3.496,0.001563,-0.005717,
3497,3.497,-0.000964,-0.006751,
3498,3.498,-0.003137,-0.000353,
3499,3.499,0.004661,0.010786,
3500,3.500,-0.000581,0.009249,
3501,3.501,0.000268,0.005177,
3502,3.502,0.002826,0.001438,
3503,3.503,0.000643,0.002450,
3504,3.504,0.004210,-0.007035,
3505,3.505,-0.001530,-0.000775,
3506,3.506,-0.003715,0.000236,
3507,3.507,-0.011481,0.005480,
3508,3.508,-0.006232,0.004649,
3509,3.509,0.003414,-0.000080,
3510,3.510,-0.003009,0.000773,
3511,3.511,0.009871,-0.007684,
3512,3.512,-0.018021,-0.008710,
3513,3.513,0.009906,0.000748,
3514,3.514,-0.008160,-0.002996,
3515,3.515,0.001671,-0.006235,
3516,3.516,0.004564,-0.005246,
3517,3.517,0.001879,0.001157,
3518,3.518,-0.005374,0.001982,
3519,3.519,-0.003159,0.001288,
3520,3.520,-0.001108,0.001961,
3521,3.521,0.000770,0.003656,
3522,3.522,0.002480,0.004163,
3523,3.523,-0.008165,0.005682,
3524,3.524,-0.004094,0.001456,
3525,3.525,0.004736,0.001961,
3526,3.526,-0.012331,0.001456,
3527,3.527,-0.009928,-0.005479,
3528,3.528,-0.007706,-0.002440,
3529,3.529,0.010751,-0.001592,
3530,3.530,0.003501,0.004319,
3531,3.531,0.010113,0.002107,
3532,3.532,0.004040,-0.005699,
3533,3.533,0.005922,-0.006742,
3534,3.534,0.000864,-0.007603,
3535,3.535,0.005464,-0.008470,
3536,3.536,0.009554,-0.001560,
3537,3.537,0.003338,-0.002418,
3538,3.538,-0.009140,0.000113,
3539,3.539,-0.004019,0.007031,
3540,3.540,0.000592,0.007862,
3541,3.541,0.001999,0.010383,
3542,3.542,0.000882,0.008153,
3543,3.543,-0.004647,0.003214,
3544,3.544,0.002695,0.007425,
3545,3.545,0.005461,0.007915,
3546,3.546,-0.000395,0.010431,
3547,3.547,0.003385,0.003483,
3548,3.548,0.005472,-0.005992,
3549,3.549,0.005020,-0.007186,
3550,3.550,-0.001333,-0.006178,
3551,3.551,0.001260,-0.009226,
3552,3.552,0.002008,-0.006497,
3553,3.553,0.001397,-0.010706,
3554,3.554,-0.000225,-0.005453,
3555,3.555,0.000348,-0.004789,
3556,3.556,0.003967,-0.011741,
3557,3.557,0.010121,0.002292,
3558,3.558,0.002395,0.004319,
3559,3.559,-0.002792,0.006172,
3560,3.560,-0.000018,0.011248,
3561,3.561,0.002571,0.006680,
3562,3.562,-0.007356,0.008019,
3563,3.563,-0.000384,0.004290,
3564,3.564,0.000838,0.003273,
3565,3.565,-0.002316,0.004272,
3566,3.566,0.002966,0.003418,
3567,3.567,0.002173,0.002570,
3568,3.568,-0.002014,-0.008927,
3569,3.569,0.000194,-0.010615,
3570,3.570,-0.001819,-0.009094,
3571,3.571,0.001252,-0.005040,
3572,3.572,0.000794,-0.006224,
3573,3.573,-0.006945,-0.002992,
3574,3.574,-0.001358,0.000092,
3575,3.575,-0.004372,0.002823,
3576,3.576,0.004107,0.008776,
3577,3.577,0.003091,0.001863,
3578,3.578,0.002077,0.002733,
3579,3.579,0.002932,0.003618,
3580,3.580,0.000409,0.005842,
3581,3.581,-0.003297,0.007892,
3582,3.582,0.001629,0.000970,
3583,3.583,-0.005298,0.003695,
3584,3.584,-0.000746,0.002875,
3585,3.585,-0.010249,-0.008601,
3586,3.586,-0.004021,-0.010264,
3587,3.587,-0.007261,0.000418,
3588,3.588,-0.006282,0.001783,
3589,3.589,-0.009054,0.002985,
3590,3.590,-0.013342,0.010774,
3591,3.591,-0.006469,0.007734,
3592,3.592,-0.009238,0.003167,
3593,3.593,-0.003387,0.000628,
3594,3.594,-0.001263,0.002834,
3595,3.595,0.000680,-0.006444,
3596,3.596,0.001097,-0.010153,
3597,3.597,0.001517,0.000190,
3598,3.598,-0.005335,0.004255,
3599,3.599,0.004890,-0.002007,
3600,3.600,-0.004849,-0.019084,
3601,3.601,0.001309,-0.016697,
3602,3.602,-0.002007,-0.005520,
3603,3.603,0.003148,0.004657,
3604,3.604,-0.001530,0.010263,
3605,3.605,-0.000789,0.005216,
3606,3.606,0.002830,0.003732,
3607,3.607,0.004758,0.005122,
3608,3.608,0.002944,-0.003630,
3609,3.609,0.008063,-0.000389,
3610,3.610,0.010663,0.004196,
3611,3.611,0.004125,0.001168,
3612,3.612,0.016877,0.003878,
3613,3.613,-0.011153,0.009802,
3614,3.614,0.008726,0.002876,
3615,3.615,-0.002200,0.000188,
3616,3.616,0.000911,-0.000644,
3617,3.617,0.015703,0.001563,
3618,3.618,0.007498,0.003606,
3619,3.619,0.000137,0.006653,
3620,3.620,-0.015514,0.001408,
3621,3.621,-0.009512,-0.009238,
3622,3.622,0.007166,-0.019885,
3623,3.623,-0.008470,-0.010242,
3624,3.624,0.001603,-0.011420,
3625,3.625,0.003395,-0.003635,
3626,3.626,0.001643,-0.006678,
3627,3.627,-0.002978,-0.011240,
3628,3.628,0.001034,0.001612,
3629,3.629,-0.007807,0.007189,
3630,3.630,-0.008873,0.008873,
3631,3.631,-0.007914,0.001254,
3632,3.632,0.006074,-0.002818,
3633,3.633,0.008057,-0.001657,
3634,3.634,0.006155,-0.000667,
3635,3.635,0.001043,0.006576,
3636,3.636,-0.000524,0.012958,
3637,3.637,0.009087,0.008681,
3638,3.638,0.005332,0.015576,
3639,3.639,0.006317,0.012831,
3640,3.640,0.003240,0.011934,
3641,3.641,0.004058,0.008171,
3642,3.642,0.001511,-0.002530,
3643,3.643,0.009953,-0.013223,
3644,3.644,0.008934,-0.003605,
3645,3.645,-0.000542,-0.009877,
3646,3.646,-0.001722,-0.002122,
3647,3.647,0.001486,-0.001136,
3648,3.648,0.000464,-0.007590,
3649,3.649,-0.002254,-0.010149,
3650,3.650,-0.001403,-0.004929,
3651,3.651,-0.009854,-0.009859,
3652,3.652,0.002685,-0.006817,
3653,3.653,-0.002376,-0.003922,
3654,3.654,-0.003878,-0.008620,
3655,3.655,-0.002523,-0.008080,
3656,3.656,0.011361,-0.002817,
3657,3.657,0.005793,0.007854,
3658,3.658,-0.009414,0.012411,
3659,3.659,-0.003302,0.011046,
3660,3.660,-0.005141,0.012205,
3661,3.661,-0.000054,0.008966,
3662,3.662,-0.016958,-0.000511,
3663,3.663,-0.001386,-0.006768,
3664,3.664,0.000629,-0.003574,
3665,3.665,-0.001245,-0.000570,
3666,3.666,-0.006316,-0.005178,
3667,3.667,-0.004807,-0.002660,
3668,3.668,-0.000741,-0.000448,
3669,3.669,0.000421,-0.005327,
3670,3.670,-0.007405,-0.001044,
3671,3.671,-0.002195,0.005442,
3672,3.672,-0.001364,0.002950,
3673,3.673,-0.000519,0.005180,
3674,3.674,-0.004252,0.005888,
3675,3.675,-0.000713,0.004219,
3676,3.676,-0.003765,0.003733,
3677,3.677,-0.003264,0.003251,
3678,3.678,0.003491,0.003620,
3679,3.679,0.006178,0.001657,
3680,3.680,0.003623,0.003643,
3681,3.681,0.004285,0.005466,
3682,3.682,-0.000641,0.005962,
3683,3.683,0.001053,0.007481,
3684,3.684,0.003935,0.009320,
3685,3.685,0.001398,0.008259,
3686,3.686,0.003602,0.008866,
3687,3.687,0.003929,0.005883,
3688,3.688,0.005798,0.011504,
3689,3.689,0.003413,0.006283,
3690,3.690,-0.001643,0.002762,
3691,3.691,0.003267,-0.006668,
3692,3.692,0.000244,-0.013534,
3693,3.693,0.001922,-0.017168,
3694,3.694,-0.000619,-0.009312,
3695,3.695,0.005477,-0.006173,
3696,3.696,0.006326,0.000363,
3697,3.697,0.004129,-0.000314,
3698,3.698,-0.000753,-0.000798,
3699,3.699,-0.006484,-0.007036,
3700,3.700,-0.010197,-0.012795,
3701,3.701,-0.005276,-0.014824,
3702,3.702,-0.004732,-0.016709,
3703,3.703,0.004103,-0.007110,
3704,3.704,-0.002120,-0.000046,
3705,3.705,-0.001059,0.003808,
3706,3.706,-0.002032,0.018837,
3707,3.707,-0.006542,0.012891,
3708,3.708,-0.002266,0.022347,
3709,3.709,0.003015,0.020796,
3710,3.710,-0.001828,0.003979,
3711,3.711,0.005676,0.002358,
3712,3.712,0.004056,0.017951,
3713,3.713,0.012921,0.024045,
3714,3.714,-0.005940,0.018453,
3715,3.715,0.007865,0.003225,
3716,3.716,0.000687,-0.015203,
3717,3.717,0.011941,-0.017563,
3718,3.718,0.018141,-0.028691,
3719,3.719,0.001507,-0.026628,
3720,3.720,-0.004971,-0.017300,
3721,3.721,-0.002818,-0.005453,
3722,3.722,-0.004546,0.005213,
3723,3.723,0.004038,0.012175,
3724,3.724,-0.000403,0.018480,
3725,3.725,-0.001626,0.012956,
3726,3.726,-0.000297,0.007752,
3727,3.727,0.007621,-0.006262,
3728,3.728,0.000492,-0.036892,
3729,3.729,-0.000209,-0.032530,
3730,3.730,0.005851,-0.044416,
3731,3.731,-0.000949,-0.040902,
3732,3.732,-0.003514,-0.017937,
3733,3.733,-0.000845,0.002863,
3734,3.734,-0.005949,0.021990,
3735,3.735,0.004839,0.044371,
3736,3.736,-0.002640,0.047341,
3737,3.737,0.010022,0.050100,
3738,3.738,-0.011840,0.032840,
3739,3.739,-0.002902,0.017249,
3740,3.740,-0.010889,-0.005298,
3741,3.741,0.011563,-0.020239,
3742,3.742,0.008812,-0.012217,
3743,3.743,0.000802,-0.014716,
3744,3.744,-0.001446,-0.021435,
3745,3.745,0.000867,-0.048093,
3746,3.746,-0.009162,-0.051760,
3747,3.747,-0.003468,-0.042071,
3748,3.748,0.005102,-0.015130,
3749,3.749,0.003676,-0.011685,
3750,3.750,-0.011464,0.004634,
3751,3.751,-0.001227,0.019412,
3752,3.752,0.000730,0.016593,
3753,3.753,-0.004235,0.009221,
3754,3.754,0.003497,0.002565,
3755,3.755,0.002252,0.004561,
3756,3.756,0.006074,0.002681,
3757,3.757,0.005151,0.007721,
3758,3.758,-0.004237,0.027592,
3759,3.759,-0.000417,0.035625,
3760,3.760,-0.001324,0.047929,
3761,3.761,-0.004274,0.045725,
3762,3.762,-0.001455,0.039627,
3763,3.763,-0.009145,0.026563,
3764,3.764,-0.001773,0.011278,
3765,3.765,0.002871,0.005154,
3766,3.766,-0.006551,-0.015324,
3767,3.767,-0.002730,-0.012657,
3768,3.768,-0.003695,-0.010354,
3769,3.769,-0.006674,0.000718,
3770,3.770,-0.005791,-0.001394,
3771,3.771,0.001999,-0.018217,
3772,3.772,0.003034,-0.029460,
3773,3.773,0.000346,-0.035616,
3774,3.774,-0.005567,-0.022676,
3775,3.775,0.001378,-0.014308,
3776,3.776,-0.003199,0.008611,
3777,3.777,0.002718,0.018363,
3778,3.778,0.006419,0.015445,
3779,3.779,0.005703,0.007305,
3780,3.780,0.001421,0.004933,
3781,3.781,0.004226,-0.019817,
3782,3.782,-0.000590,-0.029692,
3783,3.783,0.006244,-0.050547,
3784,3.784,0.001578,-0.069662,
3785,3.785,-0.004447,-0.032386,
3786,3.786,0.003907,0.004914,
3787,3.787,-0.004017,0.019414,
3788,3.788,-0.001127,0.023937,
3789,3.789,0.001383,0.020094,
3790,3.790,0.002031,0.038180,
3791,3.791,0.007055,0.047961,
3792,3.792,-0.000951,0.033025,
3793,3.793,-0.000181,0.019260,
3794,3.794,-0.003151,0.026458,
3795,3.795,0.000777,0.028587,
3796,3.796,-0.003222,0.022390,
3797,3.797,0.001297,0.005539,
3798,3.798,0.003944,-0.010131,
3799,3.799,-0.001587,-0.000069,
3800,3.800,-0.005448,0.001705,
3801,3.801,-0.014078,-0.006843,
3802,3.802,-0.015414,-0.023835,
3803,3.803,-0.012731,-0.030536,
3804,3.804,-0.006668,-0.032686,
3805,3.805,-0.004506,-0.012350,
3806,3.806,-0.004206,0.017628,
3807,3.807,-0.012377,0.013602,
3808,3.808,-0.015814,-0.019375,
3809,3.809,-0.011645,-0.050333,
3810,3.810,-0.019831,-0.038669,
3811,3.811,-0.008742,-0.006039,
3812,3.812,-0.011525,0.009132,
3813,3.813,-0.010403,-0.013098,
3814,3.814,0.009996,-0.033304,
3815,3.815,-0.029476,-0.015466,
3816,3.816,0.007347,0.007272,
3817,3.817,-0.007427,0.021860,
3818,3.818,-0.003406,0.018861,
3819,3.819,0.008062,0.020962,
3820,3.820,-0.003129,0.027275,
3821,3.821,-0.006704,0.020892,
3822,3.822,0.001748,0.029944,
3823,3.823,-0.006713,0.028029,
3824,3.824,0.000231,0.013959,
3825,3.825,-0.006696,-0.010334,
3826,3.826,0.003157,-0.026813,
3827,3.827,0.004738,-0.047721,
3828,3.828,0.006171,-0.039717,
3829,3.829,0.013539,-0.002645,
3830,3.830,0.006378,0.013042,
3831,3.831,0.012429,0.017573,
3832,3.832,0.004460,-0.004627,
3833,3.833,-0.000955,-0.032717,
3834,3.834,-0.000251,-0.036419,
3835,3.835,0.012488,-0.059568,
3836,3.836,0.017966,-0.056704,
3837,3.837,0.022978,-0.015536,
3838,3.838,0.018360,0.013797,
3839,3.839,0.019689,0.008579,
3840,3.840,0.023427,0.013319,
3841,3.841,0.022450,0.026466,
3842,3.842,0.017274,0.030271,
3843,3.843,0.029539,0.019315,
3844,3.844,0.004282,0.028970,
3845,3.845,0.059067,0.025973,
3846,3.846,0.051456,0.033979,
3847,3.847,-0.026682,0.031523,
3848,3.848,-0.016150,0.024862,
3849,3.849,-0.006428,0.026834,
3850,3.850,-0.014788,0.013766,
3851,3.851,0.008839,0.018833,
3852,3.852,0.002031,0.014252,
3853,3.853,0.008784,0.010174,
3854,3.854,0.003372,0.003887,
3855,3.855,0.009005,-0.001719,
3856,3.856,0.004666,0.009830,
3857,3.857,0.000692,0.017554,
3858,3.858,0.005013,0.013590,
3859,3.859,0.009014,0.012483,
3860,3.860,0.006282,0.018125,
3861,3.861,-0.002043,0.010939,
3862,3.862,0.001168,-0.002989,
3863,3.863,-0.000688,-0.004886,
3864,3.864,0.002029,-0.006588,
3865,3.865,0.000534,0.002030,
3866,3.866,-0.004535,0.000682,
3867,3.867,-0.002322,-0.011628,
3868,3.868,-0.003283,0.007180,
3869,3.869,0.001310,0.009709,
3870,3.870,0.000686,-0.023823,
3871,3.871,0.004430,-0.038091,
3872,3.872,0.001890,-0.042400,
3873,3.873,0.005126,-0.078337,
3874,3.874,-0.003845,-0.073546,
3875,3.875,-0.007055,-0.024980,
3876,3.876,-0.007576,-0.005710,
3877,3.877,-0.004020,0.011705,
3878,3.878,-0.006254,0.048963,
3879,3.879,-0.008331,0.034716,
3880,3.880,-0.007209,0.021698,
3881,3.881,-0.007463,0.001917,
3882,3.882,-0.008749,-0.016017,
3883,3.883,-0.012428,-0.012684,
3884,3.884,-0.008522,-0.057601,
3885,3.885,-0.014283,-0.063940,
3886,3.886,-0.009740,-0.046404,
3887,3.887,-0.008765,-0.009067,
3888,3.888,-0.016285,0.005440,
3889,3.889,-0.013005,0.045322,
3890,3.890,-0.011948,0.061363,
3891,3.891,-0.010919,0.066270,
3892,3.892,-0.012968,0.062024,
3893,3.893,-0.014897,0.034223,
3894,3.894,-0.010582,0.023501,
3895,3.895,-0.005285,0.000599,
3896,3.896,-0.004545,-0.020129,
3897,3.897,-0.010280,-0.022791,
3898,3.898,-0.009683,-0.015484,
3899,3.899,-0.004857,-0.026600,
3900,3.900,-0.003256,-0.016433,
3901,3.901,-0.005061,-0.010869,
3902,3.902,0.002619,0.004310,
3903,3.903,-0.012407,0.010330,
3904,3.904,-0.002410,-0.013926,
3905,3.905,-0.008166,-0.030374,
3906,3.906,-0.003277,-0.015581,
3907,3.907,-0.005009,-0.012947,
3908,3.908,-0.012173,-0.005717,
