Frame,Time,RightBicepsbrachiicaputbrevis,RightTricepsbrachiicaputlongus,LeftBicepsbrachiicaputbrevis,LeftTricepsbrachiicaputlongus,RightTrapeziusdescendens,LeftTrapeziusdescendens,RightLatissimusDorsi,LeftLatissimusDorsi,
0,0.000,0.010456,-0.002712,-0.002881,-0.003354,0.015279,-0.004869,0.001644,-0.001224,
1,0.001,0.012012,0.004072,-0.002218,-0.002760,0.033961,0.025361,0.002327,-0.001864,
2,0.002,0.011711,-0.006186,0.001638,-0.004871,0.027668,0.045522,-0.001907,-0.005358,
3,0.003,0.002790,-0.002077,0.001106,-0.013236,0.021999,0.071156,-0.008356,-0.006977,
4,0.004,0.007060,-0.008269,-0.002457,-0.012308,0.026345,0.094430,-0.014316,-0.002875,
5,0.005,-0.002712,-0.002645,-0.004646,-0.011379,0.039111,0.109602,-0.015022,-0.005353,
6,0.006,-0.003518,-0.003615,-0.001780,-0.005049,0.050436,0.112612,-0.007278,-0.006470,
7,0.007,-0.006707,-0.000880,0.001753,-0.000919,0.067949,0.105605,-0.002078,-0.007584,
8,0.008,-0.002964,-0.001693,0.003922,-0.003223,0.057498,0.072164,-0.004826,-0.006511,
9,0.009,-0.001421,-0.002330,0.001872,0.003092,0.048031,0.038566,-0.007411,-0.001248,
10,0.010,-0.007337,-0.001618,0.004381,0.005510,0.044644,-0.018519,-0.005254,-0.000552,
11,0.011,-0.007673,-0.001077,0.005357,0.003191,0.036681,-0.057345,-0.008846,0.004333,
12,0.012,-0.012418,-0.002734,0.000936,-0.006230,0.038201,-0.092645,-0.001956,0.000109,
13,0.013,-0.012618,0.005043,0.003781,-0.005175,0.027368,-0.086022,-0.004692,0.002979,
14,0.014,-0.010458,0.001836,0.001219,-0.004288,0.024834,-0.044915,-0.005559,0.004487,
15,0.015,-0.018802,0.002853,0.000862,-0.001370,0.015732,0.003279,-0.000335,0.001443,
16,0.016,-0.017182,0.000155,0.002026,0.003070,0.004449,0.009869,0.001689,-0.000568,
17,0.017,-0.017783,0.001002,-0.000522,0.002092,-0.011368,0.015757,-0.001358,0.001303,
18,0.018,-0.022612,-0.004224,-0.003738,0.002645,-0.013954,0.021124,0.001512,-0.001046,
19,0.019,-0.013765,-0.003535,-0.004067,-0.005242,-0.008898,0.006866,0.002010,-0.002040,
20,0.020,-0.010193,-0.003014,0.001670,-0.012606,-0.004325,-0.006195,0.004209,0.002182,
21,0.021,-0.000383,0.002221,-0.002556,-0.011853,-0.003273,-0.025988,0.008109,-0.002037,
22,0.022,-0.001240,0.001534,-0.001877,-0.002474,-0.007762,-0.022252,0.011662,-0.003706,
23,0.023,-0.004152,0.003209,0.001672,0.006224,-0.006941,-0.018828,0.010470,-0.005190,
24,0.024,-0.013337,0.000332,-0.001362,0.009341,-0.010477,0.002209,0.004888,0.001729,
25,0.025,-0.016792,0.002847,-0.003032,0.010257,-0.026525,0.005129,-0.002061,0.004743,
26,0.026,-0.019751,0.001650,0.001703,0.007442,-0.060525,-0.001891,-0.001222,0.009240,
27,0.027,-0.024765,0.002815,-0.001347,0.013261,-0.056153,-0.021852,0.001310,-0.000231,
28,0.028,-0.019982,-0.001433,-0.000834,0.010951,-0.034533,-0.018706,0.005029,0.003467,
29,0.029,-0.017239,-0.001962,-0.002355,0.011520,-0.023061,-0.010960,0.011448,0.002440,
30,0.030,-0.013331,-0.000461,-0.002016,0.008375,-0.005328,-0.008347,0.013987,0.005447,
31,0.031,-0.006733,-0.000151,0.000013,0.012359,0.017333,-0.018163,0.007046,-0.000967,
32,0.032,-0.009134,-0.001361,0.002541,0.010773,0.019886,-0.045779,0.002476,-0.005154,
33,0.033,-0.008329,-0.001050,-0.002022,0.010375,0.027716,-0.073343,-0.001752,-0.007305,
34,0.034,-0.004665,-0.000064,0.002211,0.013196,0.034751,-0.062153,-0.002431,-0.000870,
35,0.035,0.003712,-0.001790,0.000529,0.008075,0.032321,-0.018924,0.001130,-0.001704,
36,0.036,-0.003987,0.002411,0.004088,0.012952,0.030047,0.010515,-0.001909,-0.006910,
37,0.037,0.007578,-0.001853,0.003765,0.011241,0.024205,0.026518,-0.007141,-0.004853,
38,0.038,0.009134,-0.000202,0.005805,0.012906,0.012091,0.021854,-0.006439,0.000891,
39,0.039,0.002218,-0.001764,0.006835,0.016437,0.004184,-0.000075,-0.008110,0.004591,
40,0.040,0.005941,-0.000623,0.012087,0.011335,-0.005752,0.003851,-0.007578,0.002542,
41,0.041,0.000353,-0.001010,0.006852,0.000645,0.000200,0.014702,-0.010102,0.002020,
42,0.042,-0.000686,-0.005278,0.006183,-0.007000,-0.007876,0.017933,-0.003149,-0.000860,
43,0.043,0.001996,-0.004813,0.007887,-0.008388,-0.007134,0.020849,0.004146,-0.000352,
44,0.044,-0.003969,-0.003327,0.005013,-0.007229,-0.021430,0.018210,-0.004285,0.002674,
45,0.045,0.002908,-0.000324,0.004516,-0.012840,-0.048232,0.015942,0.006058,-0.000199,
46,0.046,-0.005607,-0.003243,-0.002405,-0.015916,-0.044896,0.013925,0.002019,-0.000533,
47,0.047,-0.002446,0.002463,-0.003418,-0.022370,-0.035280,0.016189,-0.004224,0.002670,
48,0.048,0.002745,0.001579,-0.006115,-0.021559,-0.026656,-0.011495,0.006111,-0.000200,
49,0.049,-0.001863,-0.002191,-0.005265,-0.014659,-0.024109,-0.039187,-0.000806,0.004849,
50,0.050,-0.004455,-0.000206,-0.001538,-0.013846,-0.051497,-0.071813,0.005480,0.006840,
51,0.051,-0.008261,-0.004478,-0.006440,-0.014727,-0.106251,-0.084910,0.013297,0.003780,
52,0.052,-0.004801,0.000723,-0.004748,-0.006303,-0.098560,-0.064885,0.020612,0.000894,
53,0.053,-0.005419,0.001352,-0.009994,-0.005325,-0.048917,-0.053997,0.010318,0.001395,
54,0.054,-0.006046,0.000803,-0.003571,0.001902,0.022218,-0.044079,0.011690,0.001055,
55,0.055,0.001624,0.002451,-0.006120,0.002696,0.069518,-0.004895,0.012905,0.003065,
56,0.056,0.000491,0.000895,-0.003932,0.005187,0.095361,0.032359,0.007370,0.003381,
57,0.057,-0.002652,-0.002181,-0.003263,0.008880,0.103115,0.027611,0.008445,0.001686,
58,0.058,0.003657,-0.001864,-0.003773,0.010904,0.095997,0.014332,0.002094,-0.002693,
59,0.059,-0.000689,-0.002902,0.001473,0.009210,0.089564,0.026041,-0.000369,-0.000988,
60,0.060,0.001399,0.000962,0.003491,0.005162,0.072171,0.043975,0.001916,0.001557,
61,0.061,0.009054,0.003474,0.000432,0.011944,0.067039,0.060118,-0.008661,-0.005336,
62,0.062,0.005896,0.003124,0.003303,0.009240,0.052756,0.068585,-0.013155,-0.006304,
63,0.063,0.008497,0.001925,0.000752,0.006703,0.030869,0.070949,-0.011729,-0.001727,
64,0.064,0.009264,0.002930,-0.000445,0.006040,0.019099,0.053435,-0.017914,-0.004243,
65,0.065,0.012912,0.004607,0.000731,0.008109,0.001014,0.059912,-0.016830,-0.006400,
66,0.066,0.002169,0.004947,0.003257,0.001225,-0.015428,0.057834,-0.011514,-0.001474,
67,0.067,0.009712,0.004261,-0.001995,-0.009041,-0.024293,0.048513,-0.006870,0.001576,
68,0.068,0.016583,0.000361,-0.001324,-0.015938,-0.027091,0.029919,-0.011029,-0.000100,
69,0.069,0.017695,-0.000154,-0.000661,-0.009646,-0.034468,0.002693,-0.013157,0.006632,
70,0.070,0.009846,0.001369,-0.001181,-0.006401,-0.045730,-0.008129,-0.005318,0.003909,
71,0.071,0.012807,-0.000823,-0.005237,-0.001139,-0.068322,-0.024489,0.002020,-0.000307,
72,0.072,0.008207,-0.003680,-0.004737,-0.000273,-0.071292,-0.033242,-0.002474,0.003398,
73,0.073,0.009003,0.002083,-0.005933,0.002285,-0.052258,-0.019540,0.007064,-0.001502,
74,0.074,0.003714,0.001249,0.000491,0.009246,-0.019962,-0.041906,0.003403,0.004218,
75,0.075,0.007211,0.003474,0.003185,0.004698,0.010866,-0.086950,0.002424,-0.002709,
76,0.076,0.002922,0.001469,-0.002753,0.010630,0.022783,-0.132196,0.001441,-0.001855,
77,0.077,-0.002394,0.001999,0.000963,0.008436,0.026406,-0.126552,0.006035,-0.004369,
78,0.078,-0.001813,0.000324,0.001623,0.003544,0.029695,-0.067968,0.000153,-0.000657,
79,0.079,-0.002926,0.002714,0.003645,-0.009651,0.019252,-0.006337,0.004415,-0.006717,
80,0.080,0.006455,0.000195,0.007864,-0.013882,0.010484,0.016934,0.003771,-0.006013,
81,0.081,-0.000565,0.000552,-0.000947,-0.011028,-0.003172,-0.018614,0.001763,-0.000271,
82,0.082,-0.001815,-0.000610,0.000217,-0.010535,-0.025425,-0.025060,0.004822,-0.000961,
83,0.083,0.001317,0.002966,-0.003018,-0.010905,-0.016570,0.039504,-0.001583,-0.000312,
84,0.084,-0.006029,-0.003094,-0.000001,-0.017368,0.002601,0.082603,0.000977,0.003857,
85,0.085,-0.003388,0.001169,-0.004594,-0.016560,0.019930,0.105978,-0.001195,0.000953,
86,0.086,0.004310,0.003400,-0.000389,-0.007138,0.031236,0.098912,-0.007586,0.000415,
87,0.087,0.001181,0.001405,-0.002609,-0.006002,0.045745,0.079633,-0.001636,-0.004669,
88,0.088,0.001938,0.003138,0.002269,0.001722,0.044405,0.073874,-0.002276,0.001722,
89,0.089,-0.004078,0.004863,0.001736,0.006907,0.050047,0.057991,0.005540,0.000846,
90,0.090,-0.001986,-0.002881,0.002217,0.007695,0.039822,0.043623,0.004552,0.004516,
91,0.091,-0.009881,0.000377,-0.000351,0.010164,0.024927,0.012855,0.001872,-0.000413,
92,0.092,-0.004741,-0.004826,0.005709,0.004840,0.015053,-0.014980,-0.000646,0.000054,
93,0.093,-0.004006,-0.000219,-0.000248,0.008305,0.009672,-0.040248,0.003104,-0.002849,
94,0.094,-0.011901,0.000663,-0.002482,0.009908,-0.002041,-0.089686,0.005164,-0.001351,
95,0.095,-0.019310,0.001373,0.005263,0.006953,-0.009620,-0.110935,0.008232,-0.003569,
96,0.096,-0.022158,-0.003500,-0.000021,0.012620,-0.016630,-0.091714,0.007752,-0.003253,
97,0.097,-0.031801,0.003468,0.002640,0.011859,-0.015576,-0.074432,0.005230,-0.000748,
98,0.098,-0.023163,0.000793,0.001750,0.009756,-0.012492,-0.048002,0.000162,0.000899,
99,0.099,-0.006228,-0.001718,0.001030,0.009163,-0.011583,0.014962,-0.003380,-0.004196,
100,0.100,-0.004003,0.002027,0.003021,0.008582,-0.016236,0.040690,-0.005075,0.003530,
101,0.101,0.002427,0.000015,0.006032,0.009019,-0.018857,0.032738,0.003726,-0.001740,
102,0.102,0.000237,-0.000472,0.005485,0.010132,-0.024170,-0.002948,0.004923,-0.002617,
103,0.103,-0.005490,-0.000951,0.005959,0.014815,-0.029100,-0.009463,-0.002847,0.005098,
104,0.104,-0.007332,-0.002451,0.002874,0.010531,-0.034831,0.019747,-0.010123,0.004013,
105,0.105,-0.018133,-0.002770,0.001663,0.001689,-0.032570,0.024948,-0.009277,-0.002456,
106,0.106,-0.003053,-0.005625,-0.000231,-0.009687,-0.031826,0.039298,-0.013512,0.000030,
107,0.107,-0.001151,-0.003072,-0.003470,-0.011259,-0.041258,0.026099,-0.009807,-0.000698,
108,0.108,-0.003131,0.000829,0.002934,-0.015355,-0.062069,0.014262,-0.014729,-0.002774,
109,0.109,0.005208,0.001347,0.003756,-0.014211,-0.101206,0.039661,-0.005277,0.000203,
110,0.110,-0.002530,-0.005586,-0.004042,-0.006475,-0.074743,0.056140,-0.001242,0.001825,
111,0.111,-0.006698,-0.002530,-0.001019,-0.009571,-0.060498,0.047430,0.004989,0.006479,
112,0.112,-0.018133,0.000189,-0.001885,-0.014179,-0.029873,0.006420,0.001726,0.006892,
113,0.113,-0.013680,0.001039,-0.006141,-0.025393,0.013927,-0.046406,0.004712,-0.000784,
114,0.114,-0.004131,-0.007419,-0.003971,-0.026969,0.042988,-0.053374,0.005510,-0.006063,
115,0.115,-0.007942,0.000356,-0.006027,-0.020089,0.058678,-0.059705,0.001234,-0.006938,
116,0.116,-0.004804,0.001366,-0.007745,-0.008800,0.063181,-0.065389,0.003383,-0.006132,
117,0.117,0.002383,-0.001350,-0.003716,-0.004287,0.067337,-0.049450,0.002667,0.002262,
118,0.118,0.008740,-0.003897,-0.003244,-0.005692,0.063208,-0.044713,0.009562,-0.000994,
119,0.119,0.021519,-0.004593,-0.010210,0.000507,0.059424,-0.066737,0.003088,-0.004079,
120,0.120,-0.006461,-0.006637,-0.002970,0.001478,0.055988,-0.054948,-0.002878,0.000428,
121,0.121,0.005313,-0.000909,-0.000295,0.006679,0.040880,-0.007640,0.002321,0.001213,
122,0.122,0.001695,0.001266,-0.002872,0.005803,-0.000442,0.024611,0.000251,0.004857,
123,0.123,0.004824,-0.008061,0.000819,0.008309,-0.029907,0.041991,0.009675,0.004107,
124,0.124,0.007638,-0.004359,0.002818,0.008961,-0.045951,0.057917,0.005576,0.001005,
125,0.125,0.015674,-0.001161,-0.002961,0.006913,-0.041317,0.062737,0.006728,-0.000731,
126,0.126,0.027948,0.004064,0.002255,0.001129,-0.019405,0.049608,-0.001064,0.001752,
127,0.127,0.030100,-0.000527,-0.002687,0.004827,0.024507,0.045761,0.001971,-0.003362,
128,0.128,0.023950,0.001985,-0.002213,0.002772,0.041861,0.020456,0.002811,-0.005422,
129,0.129,0.018319,0.004155,0.000628,0.009680,0.036546,-0.009114,0.007026,0.001483,
130,0.130,0.006427,0.002101,0.005331,0.003218,0.022080,-0.012704,0.003284,0.000611,
131,0.131,0.014000,0.001562,0.005804,0.009106,0.026376,0.005703,-0.007387,0.004819,
132,0.132,0.004304,-0.001356,0.005255,0.006891,0.022372,-0.010468,-0.008911,0.010056,
133,0.133,0.000513,-0.001913,0.004703,0.006209,0.004160,-0.031075,-0.010259,0.000742,
134,0.134,0.012929,-0.000775,0.001617,0.007905,-0.045490,-0.000691,-0.013986,0.001914,
135,0.135,0.004368,0.000356,0.000396,0.005037,-0.138062,0.035617,-0.008397,0.000889,
136,0.136,0.008899,-0.004768,0.002902,0.005572,-0.251736,0.040589,-0.013650,-0.000135,
137,0.137,0.007610,0.001616,0.001192,0.004438,-0.236482,0.009971,-0.009097,0.000701,
138,0.138,0.006429,-0.000966,0.000154,0.001616,-0.111269,-0.001775,-0.003190,0.003225,
139,0.139,0.007423,-0.003206,0.003857,0.002691,-0.027181,-0.005273,-0.001006,-0.003711,
140,0.140,-0.006314,-0.001219,-0.001924,0.002420,0.018664,-0.035026,0.002546,0.004755,
141,0.141,-0.004476,-0.000760,0.000243,0.002824,0.060248,-0.046866,0.000848,0.001547,
142,0.142,-0.002804,0.002071,-0.000470,0.003570,0.097923,-0.050451,0.002526,-0.005735,
143,0.143,0.004790,0.004560,-0.002178,-0.000254,0.132379,-0.007505,0.000982,-0.001163,
144,0.144,0.008839,0.005700,-0.000512,0.001512,0.163453,0.069012,0.002145,-0.001998,
145,0.145,0.017627,0.003629,-0.001048,0.002100,0.172885,0.100174,0.005005,-0.004179,
146,0.146,0.007314,0.005445,-0.000721,-0.004764,0.146996,0.071826,0.005326,0.000738,
147,0.147,0.000397,0.005745,-0.001931,0.006817,0.107987,0.046131,0.006326,-0.002284,
148,0.148,-0.008372,0.004024,-0.001620,0.005367,0.072610,0.038553,0.007994,-0.000565,
149,0.149,0.004198,0.007044,-0.002657,0.004085,0.040452,0.031663,0.003740,-0.004093,
150,0.150,-0.004181,0.001431,0.000372,0.005332,-0.000365,0.025459,-0.000518,-0.001016,
151,0.151,-0.011702,-0.002318,-0.001509,-0.000182,-0.016155,-0.003610,-0.000041,-0.002162,
152,0.152,-0.007535,0.001212,0.001688,0.000904,-0.011300,-0.008709,-0.000563,0.003632,
153,0.153,-0.011143,0.000687,-0.002218,-0.001730,-0.006794,-0.003875,-0.003618,0.001129,
154,0.154,-0.005436,-0.001016,0.001329,-0.004196,-0.002822,0.009379,-0.001609,0.001849,
155,0.155,-0.016794,0.000490,-0.001737,0.001115,0.000817,0.005545,0.000906,0.002567,
156,0.156,-0.021213,0.000144,-0.000561,-0.006606,0.004130,-0.012566,-0.000804,0.003105,
157,0.157,-0.014093,-0.001050,-0.000230,-0.003508,0.007114,-0.035595,-0.001839,0.006032,
158,0.158,-0.010178,0.002506,-0.001936,-0.002607,-0.000834,-0.056443,-0.001172,0.002536,
159,0.159,-0.017750,-0.001705,0.002457,-0.001707,-0.007884,-0.053821,0.002710,-0.000453,
160,0.160,-0.014487,-0.003389,-0.001602,-0.005368,-0.009864,-0.051535,0.009132,0.002476,
161,0.161,-0.005818,0.000176,0.004145,-0.001740,-0.019792,-0.062801,0.013347,0.003547,
162,0.162,-0.015913,-0.000137,0.003469,-0.001160,-0.025158,-0.069013,0.006403,0.002588,
163,0.163,-0.014353,0.002766,-0.000080,0.000607,-0.030021,-0.048680,0.003681,0.000273,
164,0.164,-0.017882,0.000263,0.000434,-0.005076,-0.025251,-0.024133,0.007893,0.004546,
165,0.165,-0.012042,0.001300,0.004504,-0.001278,-0.023699,-0.007812,0.004142,0.000371,
166,0.166,-0.012765,-0.001710,0.002986,-0.006089,-0.024689,0.007117,0.007673,-0.002457,
167,0.167,-0.002173,0.000866,-0.000050,-0.000217,-0.021293,0.015405,0.007147,0.003347,
168,0.168,-0.005964,-0.004337,0.002843,-0.002280,-0.022173,0.013156,0.005440,0.007128,
169,0.169,-0.006878,0.002644,0.001006,0.002749,-0.017480,0.015430,0.008993,0.002285,
170,0.170,-0.003380,-0.000025,0.003386,-0.001350,-0.019914,0.013433,0.006784,0.000649,
171,0.171,0.010568,-0.002523,-0.001670,0.002836,-0.014593,0.007866,0.007117,0.002400,
172,0.172,-0.002206,-0.001795,-0.000966,0.000429,-0.025215,-0.017518,0.002895,-0.002271,
173,0.173,0.013261,-0.005288,0.000755,0.000889,-0.020647,-0.050403,-0.005887,-0.001694,
174,0.174,0.011491,-0.002195,0.002475,0.007444,-0.013700,-0.037275,-0.019731,-0.004504,
175,0.175,-0.004985,-0.001632,0.003022,0.004869,-0.012512,-0.017383,-0.017848,-0.002925,
176,0.176,0.006468,-0.000056,0.002718,0.004158,-0.011464,0.000725,-0.016145,-0.007103,
177,0.177,0.004731,0.000339,0.003093,0.003600,-0.010381,-0.029085,-0.011579,-0.001812,
178,0.178,0.010597,-0.002480,0.002108,0.001685,-0.005718,-0.041026,-0.004650,-0.005316,
179,0.179,0.012568,0.001123,0.003161,0.003479,0.000255,-0.023133,-0.008379,-0.004750,
180,0.180,0.019957,0.007274,0.001846,-0.001663,0.002279,0.005693,-0.016104,-0.007219,
181,0.181,0.030881,0.009531,0.003586,-0.003273,-0.004706,0.028392,-0.014945,-0.003099,
182,0.182,0.051968,0.007562,-0.000609,-0.004715,-0.007442,0.013197,-0.009611,0.000511,
183,0.183,0.043467,0.006603,-0.001075,-0.004986,-0.016919,0.020958,-0.012198,0.002765,
184,0.184,0.002641,0.004970,-0.006291,-0.010512,-0.028258,0.037853,-0.001027,0.000785,
185,0.185,-0.050014,0.002663,-0.009816,-0.012661,-0.029844,0.048719,0.000486,0.002691,
186,0.186,0.000016,0.000183,-0.005564,-0.009073,-0.017450,0.058658,0.004506,0.003083,
187,0.187,0.019620,-0.001452,-0.005024,-0.004814,-0.005774,0.056613,0.005649,-0.000594,
188,0.188,0.025684,0.000971,0.002792,-0.004286,0.004802,0.047940,0.000078,-0.003601,
189,0.189,0.020758,0.000349,0.003835,-0.000723,0.017352,0.033861,0.003118,0.000328,
190,0.190,0.016337,0.000571,0.004877,-0.001903,0.019091,0.028122,0.005792,0.007122,
191,0.191,0.021040,0.000459,-0.005419,-0.001572,0.017587,0.002587,0.008278,0.000732,
192,0.192,0.017461,0.001020,-0.001334,-0.003445,0.016217,-0.052243,0.008889,-0.003462,
193,0.193,0.014227,0.000559,-0.000127,-0.004485,0.007364,-0.044663,0.005289,-0.004108,
194,0.194,0.004750,0.003317,-0.005687,0.000562,-0.009795,-0.051949,0.005756,0.000829,
195,0.195,0.002208,-0.002391,0.001607,-0.000155,-0.047120,-0.084400,0.002857,-0.003371,
196,0.196,-0.000164,-0.003189,0.004333,0.002838,-0.073834,-0.055268,0.005363,-0.002837,
197,0.197,-0.002194,-0.005346,0.000122,0.002268,-0.049869,-0.028828,0.002321,0.001933,
198,0.198,-0.004056,-0.001754,-0.003586,0.006946,-0.010382,0.004906,0.004329,-0.003795,
199,0.199,-0.005753,-0.000028,0.001331,0.002649,0.005234,0.026829,0.004644,-0.001571,
200,0.200,-0.007263,-0.002868,0.000838,0.000878,0.009662,0.038582,-0.000580,-0.005109,
201,0.201,-0.008603,-0.004365,-0.000843,0.001309,0.022533,0.034866,-0.002743,0.001843,
202,0.202,-0.012824,-0.005529,-0.005574,0.003413,0.042180,0.044437,0.000825,0.001009,
203,0.203,-0.019405,-0.000767,0.002729,0.002974,0.038320,0.047036,0.000330,0.001871,
204,0.204,-0.017876,-0.003787,-0.005047,0.001855,0.034809,0.071463,-0.000158,0.005594,
205,0.205,-0.023120,-0.000897,-0.004024,0.002768,0.031654,0.061394,0.001368,-0.005063,
206,0.206,-0.019720,-0.005625,0.000551,0.003680,-0.009730,0.040340,-0.000810,-0.006595,
207,0.207,-0.022082,-0.008667,-0.000285,0.004250,-0.039264,0.042836,-0.001122,-0.005254,
208,0.208,-0.015788,0.000133,-0.002467,0.004314,-0.034262,0.035378,0.004602,0.001000,
209,0.209,-0.008495,-0.003585,-0.001777,0.000493,-0.000646,0.033048,0.010462,-0.000022,
210,0.210,-0.012704,-0.006803,-0.001246,0.002930,0.021151,0.018787,0.008207,0.003002,
211,0.211,0.000507,-0.003763,-0.001737,-0.000222,0.040969,-0.009125,0.008831,0.003829,
212,0.212,0.017606,-0.004610,-0.003240,0.001701,0.059015,-0.029088,0.008287,0.004651,
213,0.213,-0.015718,0.001300,-0.001028,-0.000271,0.055870,-0.061898,0.013438,-0.003837,
214,0.214,-0.029758,-0.000905,0.002880,-0.004945,0.041129,-0.127997,0.002759,0.001711,
215,0.215,-0.007436,-0.000241,0.001367,-0.011992,0.027561,-0.175294,0.001227,0.000663,
216,0.216,0.004727,-0.001944,0.000191,-0.016669,0.034896,-0.097581,-0.002817,0.001467,
217,0.217,0.008596,-0.003654,-0.001831,-0.007314,0.014564,-0.045407,-0.009016,-0.002809,
218,0.218,0.005694,0.004112,0.003922,-0.008619,0.006342,-0.016863,-0.005771,0.000867,
219,0.219,0.014796,0.003069,0.004769,-0.005525,0.003814,0.009125,-0.010949,0.001502,
220,0.220,0.017795,0.000001,0.001047,-0.006654,0.005821,0.048328,-0.013572,-0.002783,
221,0.221,0.020445,-0.002733,-0.000981,-0.004058,-0.004540,0.084010,-0.016007,-0.003343,
222,0.222,0.009570,0.001467,0.002060,-0.008394,-0.028936,0.064861,-0.016578,-0.001862,
223,0.223,0.003741,0.000753,-0.003186,-0.012226,-0.025912,0.047534,-0.012950,0.001149,
224,0.224,-0.001578,0.004265,-0.002512,-0.017236,-0.034848,-0.021766,-0.003476,0.003978,
225,0.225,0.000355,0.004735,-0.000818,-0.009044,-0.037639,-0.012218,0.000548,0.005789,
226,0.226,0.005144,0.001821,0.002052,-0.005933,-0.030409,0.013755,0.006728,0.000491,
227,0.227,0.001302,0.006514,-0.002691,-0.000798,-0.001145,0.052938,0.005645,-0.006497,
228,0.228,-0.004747,-0.000469,-0.001015,-0.000065,0.018837,0.060121,0.002571,-0.007390,
229,0.229,0.001054,0.000330,-0.003914,0.005746,0.022435,0.066615,0.001709,-0.003210,
230,0.230,-0.001780,-0.002245,0.003857,0.004960,-0.000510,0.060942,-0.002512,0.000466,
231,0.231,-0.013737,-0.000090,-0.001740,0.006887,-0.027505,0.066315,-0.004683,0.002444,
232,0.232,-0.001679,-0.002163,0.005514,0.008481,-0.038250,0.042338,0.001729,-0.001829,
233,0.233,0.000060,-0.002722,0.002786,0.007876,-0.021763,0.011756,0.002562,0.001011,
234,0.234,-0.003815,0.000100,0.003607,0.009303,-0.018778,-0.031998,0.003219,-0.005802,
235,0.235,-0.012477,-0.001485,-0.001677,0.008023,-0.021320,-0.049144,-0.003181,-0.001287,
236,0.236,-0.004595,0.002687,-0.003741,0.008271,-0.023486,-0.043650,0.001055,0.002895,
237,0.237,-0.005478,0.000940,0.000459,0.007183,0.001430,-0.048171,-0.001115,0.002173,
238,0.238,-0.000773,-0.000648,0.002126,0.006778,0.038037,-0.070041,0.002453,0.002798,
239,0.239,0.001883,-0.001892,0.000592,0.009091,0.062449,-0.066094,0.001969,-0.000294,
240,0.240,0.002662,0.000076,0.000240,0.007183,0.075854,-0.033154,0.006021,-0.002030,
241,0.241,0.002065,0.004246,0.000560,0.010013,0.079938,-0.010921,0.013747,-0.003596,
242,0.242,-0.000914,0.000124,0.000198,0.004232,0.062011,0.009303,0.003432,-0.001437,
243,0.243,0.002015,0.003618,0.002552,0.008459,0.052350,0.020308,0.007472,-0.001816,
244,0.244,0.006793,-0.002524,0.001517,0.010676,0.037600,0.017240,-0.001301,-0.001521,
245,0.245,-0.002653,-0.000039,0.001667,0.008668,0.024009,-0.021717,-0.006830,-0.003253,
246,0.246,-0.003988,-0.000770,0.002837,0.007007,-0.003125,-0.048229,-0.001570,-0.000258,
247,0.247,-0.002783,-0.000145,0.003506,0.006554,-0.028373,-0.062586,-0.002389,-0.000643,
248,0.248,-0.003788,-0.001882,0.000283,0.007126,-0.037971,-0.040617,-0.004899,0.002526,
249,0.249,-0.006834,-0.000230,0.003308,0.001111,-0.046508,0.011408,-0.005541,0.001290,
250,0.250,-0.004130,0.000246,0.004483,0.005406,-0.048948,0.046856,-0.009044,0.002260,
251,0.251,-0.003301,-0.002826,-0.001277,0.006145,-0.036311,0.066068,-0.003270,0.000530,
252,0.252,0.003607,-0.003196,0.001257,0.002668,-0.029344,0.060250,-0.005437,0.005572,
253,0.253,0.012035,0.001004,0.000565,-0.002987,-0.026884,0.054965,-0.000533,0.003508,
254,0.254,-0.005095,0.003857,-0.001464,-0.000678,-0.017146,0.040570,0.001141,0.007711,
255,0.255,0.002139,0.005356,-0.003164,-0.004132,-0.011630,0.009784,-0.001735,0.006002,
256,0.256,-0.009083,0.001118,-0.007221,-0.004531,-0.018836,-0.010184,0.003996,-0.000789,
257,0.257,0.005077,0.001611,-0.005700,-0.007299,-0.028168,-0.035611,-0.002920,-0.003516,
258,0.258,-0.000573,0.002104,-0.008750,-0.006682,-0.031681,-0.058689,0.007358,0.002396,
259,0.259,0.004432,-0.000096,-0.005875,-0.003521,-0.048618,-0.061621,0.003284,0.000200,
260,0.260,0.008926,-0.001286,-0.004010,-0.002218,-0.085647,-0.036960,-0.002948,0.002245,
261,0.261,0.007487,0.002941,-0.001636,-0.000223,-0.133500,-0.020537,0.002624,0.002762,
262,0.262,0.006212,-0.001111,-0.006030,-0.002452,-0.139726,-0.011603,0.005657,0.002265,
263,0.263,0.007137,0.000418,-0.000783,-0.002657,-0.086585,0.002227,0.004812,0.001766,
264,0.264,0.012237,-0.001771,0.001243,-0.001181,-0.008128,0.019465,0.003969,0.002113,
265,0.265,0.009364,0.000268,-0.000448,0.002319,0.064833,0.025910,0.004627,0.003313,
266,0.266,0.011747,-0.001579,0.001241,0.006657,0.112205,-0.004978,0.005281,0.002980,
267,0.267,0.006340,0.002325,0.001742,0.003889,0.138055,0.007999,0.003567,0.000630,
268,0.268,0.006847,0.000815,0.001395,0.002482,0.145783,-0.004056,0.004039,0.004362,
269,0.269,0.008352,0.001179,-0.000630,-0.002477,0.138612,-0.022309,-0.000706,-0.000701,
270,0.270,0.001727,-0.000825,0.000381,-0.001681,0.119240,-0.006052,-0.001214,-0.007114,
271,0.271,0.004044,0.004274,-0.000643,0.000129,0.089878,0.008687,-0.000706,-0.013020,
272,0.272,0.001608,0.002272,0.000369,-0.002631,0.052553,0.022280,0.000806,-0.003024,
273,0.273,0.004883,0.001796,-0.001493,-0.002012,0.018621,0.024534,0.000473,-0.001646,
274,0.274,-0.001165,0.001326,0.002396,0.000286,-0.003418,0.026627,0.006045,0.002100,
275,0.275,-0.000809,0.003898,0.001889,0.005116,-0.023376,0.024402,0.006719,-0.001087,
276,0.276,-0.004692,0.004279,0.006623,0.006900,-0.026839,0.022335,-0.001015,-0.000054,
277,0.277,-0.014509,0.001440,0.008318,0.004109,-0.029876,0.023829,0.000046,-0.000881,
278,0.278,-0.016222,-0.003591,-0.000479,0.005713,-0.026765,0.025245,0.000926,-0.001712,
279,0.279,-0.025409,0.002870,0.000703,0.000705,-0.023852,0.004399,-0.004944,0.002027,
280,0.280,-0.022591,0.000371,0.003914,-0.001257,-0.026092,-0.040634,0.000317,0.000021,
281,0.281,-0.020970,0.002436,0.002058,0.001847,-0.015417,-0.042060,-0.000842,-0.003336,
282,0.282,-0.016169,0.001809,0.003078,0.003589,-0.031056,-0.048576,0.001198,0.004990,
283,0.283,-0.013916,0.003876,0.009514,0.004131,-0.057749,-0.066072,0.002898,0.006041,
284,0.284,-0.020303,-0.001836,0.003602,0.003658,-0.061439,-0.039611,-0.001135,0.003035,
285,0.285,-0.009283,-0.003991,0.002934,-0.000557,-0.045184,-0.015600,-0.004634,0.000364,
286,0.286,-0.008099,0.002473,0.000903,0.001137,-0.036549,0.032689,-0.010651,0.002944,
287,0.287,-0.001003,-0.000019,-0.003327,-0.001418,-0.012001,0.051689,-0.014776,-0.002257,
288,0.288,-0.002881,0.000700,-0.001634,-0.001102,0.004264,-0.013191,-0.007765,-0.000177,
289,0.289,0.000298,0.000063,0.000903,0.000051,0.012939,-0.091079,-0.004994,0.002910,
290,0.290,0.002951,0.001793,-0.001301,-0.005741,0.020940,-0.101613,-0.002401,-0.003477,
291,0.291,-0.000669,0.000137,-0.004184,-0.018649,0.028076,-0.054398,-0.003020,-0.004284,
292,0.292,-0.002109,-0.003382,0.000889,-0.024288,0.025721,-0.011366,0.000569,-0.000517,
293,0.293,-0.005259,-0.000309,-0.002668,-0.015905,0.027561,0.011929,0.002276,0.001567,
294,0.294,-0.005202,-0.001463,-0.000983,-0.014461,0.014342,0.047425,0.002802,0.005840,
295,0.295,-0.012255,-0.001774,-0.003866,-0.021478,-0.007864,0.079705,-0.000714,0.004194,
296,0.296,-0.008683,-0.004116,-0.004382,-0.020383,-0.035133,0.108904,0.006215,0.005759,
297,0.297,-0.005634,-0.003078,0.000688,-0.017275,-0.031766,0.135396,0.003178,0.006989,
298,0.298,-0.008346,-0.005595,-0.002878,-0.007915,-0.022142,0.111147,0.005883,0.003146,
299,0.299,-0.003295,-0.006593,-0.002383,-0.001777,-0.031118,0.080332,-0.001874,-0.001540,
300,0.300,-0.000283,-0.001497,-0.006460,-0.005121,-0.072400,0.044366,-0.000851,0.000192,
301,0.301,-0.004551,-0.000803,0.000290,-0.012521,-0.089996,0.010649,0.005550,0.000733,
302,0.302,-0.001055,-0.000280,-0.004294,-0.015356,-0.084900,-0.019991,0.008057,-0.002789,
303,0.303,-0.005848,0.000241,-0.001771,-0.002628,-0.080307,-0.031683,0.005848,-0.005801,
304,0.304,0.000175,-0.004486,-0.007025,-0.004621,-0.049661,-0.042382,-0.001914,-0.004579,
305,0.305,-0.005156,-0.001423,0.000745,0.000319,-0.005815,-0.032474,-0.002903,-0.004877,
306,0.306,0.001857,0.000282,0.001754,0.001710,0.047024,-0.023602,-0.000194,-0.008055,
307,0.307,0.002084,-0.001238,-0.000964,0.000220,0.082478,-0.042651,0.000650,-0.009217,
308,0.308,0.002152,0.001810,-0.003508,-0.001100,0.063215,-0.054902,-0.001553,-0.013425,
309,0.309,0.000514,-0.000229,-0.002841,-0.006816,0.057529,-0.088449,0.000467,-0.004599,
310,0.310,0.003447,-0.002096,-0.000819,-0.007962,0.041690,-0.161032,-0.008984,-0.003382,
311,0.311,0.000621,0.000260,-0.000315,0.000373,0.036939,-0.129724,-0.013008,-0.000137,
312,0.312,0.006752,0.002627,0.006120,0.008027,0.050080,-0.025182,-0.006731,-0.003148,
313,0.313,0.006796,0.003291,0.003579,0.008915,0.069966,0.044561,-0.001153,-0.002260,
314,0.314,0.003460,0.000401,0.004260,0.011490,0.066412,0.107867,-0.000152,0.005555,
315,0.315,0.004872,0.001403,0.004938,0.010515,0.069684,0.119552,0.004379,-0.001686,
316,0.316,-0.000828,0.002401,0.004425,0.011067,0.048996,0.130060,0.008548,0.002915,
317,0.317,-0.003304,-0.001343,-0.002009,0.008917,0.035408,0.082870,0.009157,0.005477,
318,0.318,-0.003583,-0.001699,0.003907,0.007110,0.033133,0.074490,0.004201,0.003300,
319,0.319,0.000381,-0.000537,0.003219,0.006487,0.026602,0.066982,0.002470,0.002645,
320,0.320,-0.002081,-0.004114,-0.001697,0.006885,0.016493,0.031694,0.005287,0.003172,
321,0.321,0.004777,-0.001938,-0.001193,0.005593,-0.007693,-0.000405,-0.001511,-0.000881,
322,0.322,0.000997,-0.004831,-0.002892,0.009396,-0.037470,-0.029443,-0.004245,0.002684,
323,0.323,0.002980,0.000226,-0.003404,0.007786,-0.065361,-0.013279,-0.003427,0.002363,
324,0.324,-0.000263,-0.004703,0.000817,0.010756,-0.105415,0.001322,-0.007161,0.008810,
325,0.325,-0.000275,-0.001682,-0.002058,0.011874,-0.131956,0.005926,-0.005147,0.004254,
326,0.326,-0.002977,-0.003394,-0.001543,0.011481,-0.127244,-0.037862,-0.002134,0.003409,
327,0.327,0.003299,0.001318,0.001511,0.013810,-0.078749,-0.078648,0.004224,0.002745,
328,0.328,-0.000040,-0.001753,0.000326,0.008697,-0.020495,-0.073228,0.006672,0.002069,
329,0.329,-0.003181,-0.000089,-0.000703,0.006634,0.034016,-0.048857,0.001371,0.002575,
330,0.330,0.003172,-0.006879,-0.003932,0.004905,0.069416,-0.035450,0.003337,-0.002675,
331,0.331,0.007199,0.001549,-0.001059,0.007749,0.088575,-0.055203,0.001582,-0.003347,
332,0.332,0.004147,0.000514,-0.003606,-0.000053,0.082706,-0.044177,0.002017,-0.002841,
333,0.333,0.002984,-0.000526,-0.003277,0.005517,0.077330,-0.001028,-0.004823,-0.003349,
334,0.334,0.004564,0.004019,0.001118,0.004504,0.062836,0.052089,-0.002188,-0.002847,
335,0.335,0.004657,-0.000233,-0.000585,0.009075,0.040774,0.073567,-0.006495,-0.000649,
336,0.336,0.000224,0.000422,0.000930,0.003173,0.036867,0.054414,-0.010299,-0.005400,
337,0.337,0.004634,0.001078,0.003122,0.000996,0.026051,0.037094,-0.008346,0.000339,
338,0.338,0.007382,0.001559,0.003441,0.001695,0.016278,0.031940,-0.010110,-0.000361,
339,0.339,0.005431,0.003223,0.003765,0.000027,0.013448,0.017630,-0.006113,0.000310,
340,0.340,0.006725,0.005742,0.000542,-0.001618,0.005396,0.004530,-0.000429,-0.003929,
341,0.341,0.006861,0.004542,0.000876,0.000959,-0.001821,-0.015305,0.000177,-0.006828,
342,0.342,0.002809,0.003341,0.003406,-0.000185,-0.017341,-0.018701,-0.001924,0.000941,
343,0.343,0.000137,0.000778,0.001714,-0.003001,-0.019328,-0.015322,-0.007731,-0.000093,
344,0.344,0.006981,0.001785,0.002045,-0.004767,-0.036016,-0.006382,-0.002529,0.000908,
345,0.345,0.007930,0.002789,-0.000491,0.000589,-0.056278,-0.008952,0.000977,0.000060,
346,0.346,0.007058,0.002950,0.004748,0.000026,-0.053532,-0.006498,-0.000756,-0.000804,
347,0.347,0.011301,0.003111,0.001028,0.000829,-0.046204,0.000133,0.003259,-0.001495,
348,0.348,0.007631,-0.000611,0.004584,-0.000727,-0.034977,-0.022370,0.009972,0.003401,
349,0.349,0.007022,0.001926,0.002896,-0.003457,-0.020702,-0.031203,0.010764,0.006429,
350,0.350,0.012894,-0.000272,-0.001162,-0.004819,-0.015082,-0.039394,0.006466,0.005890,
351,0.351,0.009339,0.000068,-0.000657,-0.007717,-0.003239,-0.041859,-0.002048,0.004350,
352,0.352,0.013087,0.003634,-0.003690,-0.008755,0.004387,-0.026399,0.003497,-0.001772,
353,0.353,0.009083,-0.002450,-0.003342,-0.004362,0.011356,-0.012285,0.000412,-0.002657,
354,0.354,0.012208,0.000105,-0.005863,-0.008261,0.000085,-0.010513,0.004942,-0.002021,
355,0.355,0.014014,0.002319,-0.003483,-0.003363,-0.022779,-0.005517,0.005746,0.001500,
356,0.356,0.011276,0.000311,-0.003799,-0.003699,-0.072064,-0.025587,0.006381,0.000971,
357,0.357,0.013649,0.006078,-0.000723,-0.003026,-0.078869,-0.028412,0.007036,-0.001927,
358,0.358,0.009782,0.000855,0.000483,-0.001341,-0.059296,-0.030951,0.006515,-0.005501,
359,0.359,0.014231,0.002907,-0.000505,-0.003383,-0.006145,-0.010824,0.002452,-0.003316,
360,0.360,0.015150,-0.004001,-0.005045,0.001502,0.015297,0.019141,-0.002292,-0.004506,
361,0.361,0.010517,0.000602,0.000738,0.001139,0.047666,-0.000945,-0.003987,-0.010256,
362,0.362,0.007419,0.001485,-0.001434,0.005352,0.041933,0.017159,-0.002297,-0.004340,
363,0.363,0.003660,-0.002200,0.002155,0.004992,0.047167,0.040290,-0.002794,-0.003668,
364,0.364,0.007022,0.001388,0.003878,0.005468,0.032776,0.031625,0.000271,-0.002994,
365,0.365,0.003980,0.001929,0.004420,0.004419,0.037141,0.018063,0.000626,0.001239,
366,0.366,0.005678,0.000281,0.002927,0.000985,0.033182,-0.019078,0.000315,0.000721,
367,0.367,0.001463,0.000826,0.005156,0.002287,0.022314,-0.034975,-0.003556,0.002247,
368,0.368,0.006222,0.001197,0.002304,-0.002342,0.005940,-0.010859,-0.002006,0.000049,
369,0.369,-0.000854,-0.001641,-0.001215,0.000794,-0.002796,0.019809,-0.002315,0.003942,
370,0.370,-0.003335,-0.003469,0.000002,-0.006734,-0.027455,0.015733,0.002456,-0.001816,
371,0.371,-0.001928,-0.004449,-0.001159,-0.003612,-0.063832,-0.002598,-0.000557,0.001906,
372,0.372,-0.000518,-0.001371,-0.000122,-0.006250,-0.078295,0.020167,-0.001042,0.001225,
373,0.373,-0.003678,-0.001001,-0.003311,-0.005347,-0.056433,0.022795,-0.002540,0.006973,
374,0.374,-0.001097,-0.002659,-0.007176,-0.004613,-0.020522,0.019857,-0.001327,0.009179,
375,0.375,0.002509,-0.000256,-0.004610,-0.009469,0.013184,0.036883,0.001574,-0.000113,
376,0.376,-0.005718,-0.001570,0.001507,-0.006381,0.052786,0.011953,0.007359,0.006149,
377,0.377,-0.006341,-0.002206,0.004077,-0.003470,0.068536,0.001875,0.001472,0.005128,
378,0.378,-0.004767,-0.000986,0.004786,0.001294,0.063684,-0.031383,0.002190,0.008171,
379,0.379,-0.009446,0.001930,-0.001609,0.001817,0.059196,-0.044806,0.004262,-0.002144,
380,0.380,-0.004323,-0.003106,0.000966,0.001315,0.055243,-0.025014,0.008532,-0.000782,
381,0.381,0.000467,0.000484,0.001673,0.000807,0.051655,-0.007014,0.008059,0.002950,
382,0.382,-0.003206,-0.000657,0.000519,-0.002583,0.027277,0.000681,0.005568,0.003120,
383,0.383,-0.007904,-0.002308,0.001233,0.000446,0.004218,0.023673,0.006129,-0.002469,
384,0.384,-0.008045,-0.002773,-0.001778,-0.006001,-0.010741,0.050859,0.005852,0.002780,
385,0.385,-0.015816,0.002001,-0.002251,-0.001456,-0.013560,0.076458,-0.000484,0.001941,
386,0.386,-0.009725,0.003727,0.004544,0.002753,-0.011311,0.066887,-0.003114,0.004484,
387,0.387,-0.014477,0.005452,0.001862,0.006444,-0.004788,0.022080,-0.002189,-0.007009,
388,0.388,-0.011278,-0.001283,0.001037,-0.002898,-0.015008,-0.036154,0.003150,-0.001921,
389,0.389,-0.006573,-0.000407,-0.002656,0.003324,-0.005815,-0.043865,0.006802,0.002655,
390,0.390,-0.014578,0.000468,-0.000604,0.002262,0.002495,-0.022547,0.005215,-0.004272,
391,0.391,-0.010919,0.004215,-0.001094,-0.005058,-0.005299,-0.003327,-0.002296,0.001997,
392,0.392,-0.017770,-0.003543,0.001805,-0.013560,-0.018023,0.013968,-0.009469,-0.001221,
393,0.393,-0.010952,-0.000474,-0.001731,-0.014629,-0.013172,0.019045,-0.004803,-0.006454,
394,0.394,-0.016503,-0.001299,0.002511,-0.009437,-0.024036,0.043075,-0.008947,0.002012,
395,0.395,-0.016819,-0.000434,-0.001541,-0.008650,-0.039456,0.056121,-0.000394,-0.001202,
396,0.396,-0.014452,-0.002618,0.002017,-0.004477,-0.029481,0.052111,0.002916,-0.004244,
397,0.397,-0.004663,-0.001934,-0.000169,-0.000810,-0.016609,0.019212,0.004033,-0.001533,
398,0.398,-0.014005,-0.000232,0.001877,-0.002897,0.001863,-0.002838,0.008717,0.004390,
399,0.399,-0.019980,0.003824,0.003748,0.005330,0.009043,-0.022859,0.001059,-0.004059,
400,0.400,-0.018692,-0.002947,-0.001485,0.004256,0.002389,-0.041001,-0.006110,0.006276,
401,0.401,-0.013184,0.003474,-0.000801,-0.005274,0.004387,-0.057456,-0.001437,0.007643,
402,0.402,-0.010240,-0.002456,-0.002825,0.006000,-0.001200,-0.054610,-0.003884,0.006459,
403,0.403,-0.009170,-0.001791,-0.001135,0.004412,-0.026556,-0.051910,-0.003116,0.000871,
404,0.404,-0.008285,-0.002478,-0.002831,0.000287,-0.081140,-0.014679,-0.001005,-0.004387,
405,0.405,-0.008767,0.003258,-0.006387,0.003948,-0.057742,0.001240,-0.009207,-0.003548,
406,0.406,-0.004354,-0.000474,-0.000299,0.002870,-0.036387,0.025481,-0.010135,-0.002713,
407,0.407,-0.005889,0.001537,-0.004527,0.003828,-0.004068,0.021149,-0.013093,-0.006444,
408,0.408,-0.005235,-0.002703,-0.002330,0.004615,0.025214,-0.006692,-0.004557,-0.004433,
409,0.409,-0.008161,-0.006788,-0.003007,0.005406,0.041162,-0.039449,-0.007695,-0.006149,
410,0.410,-0.003309,-0.004274,0.001221,0.001619,0.045992,-0.070153,-0.004590,0.000253,
411,0.411,0.002544,-0.001261,-0.001650,0.006471,0.050474,-0.066136,-0.003691,-0.000620,
412,0.412,0.001962,-0.000110,-0.000120,0.006924,0.038718,-0.025948,-0.002812,-0.001324,
413,0.413,-0.004393,0.000188,-0.002318,0.003992,0.027947,-0.009963,0.002471,-0.000665,
414,0.414,0.003447,-0.005092,0.001576,0.007484,0.031204,0.014346,0.000480,0.003543,
415,0.415,0.004528,0.000118,0.000050,0.002346,-0.013780,0.036490,0.008811,-0.002904,
416,0.416,0.005427,0.002115,0.000395,0.001614,-0.072129,0.032797,0.003271,-0.000376,
417,0.417,0.008015,-0.000963,-0.002485,0.005782,-0.079907,0.036532,0.000276,-0.002587,
418,0.418,-0.000390,0.003069,-0.001481,0.004027,-0.058578,0.053170,-0.002402,0.002309,
419,0.419,0.005239,0.000505,0.001731,0.003452,-0.026197,0.044645,0.003562,-0.001941,
420,0.420,0.010524,0.003517,0.002905,0.002203,0.014929,0.025779,0.007332,-0.001456,
421,0.421,0.011402,0.002292,0.000357,0.006022,0.031085,0.013609,0.005349,0.001060,
422,0.422,0.019223,0.004115,0.000004,-0.000808,0.016980,0.015919,0.005905,-0.005901,
423,0.423,0.009790,0.000865,0.001684,-0.000021,0.012855,0.022151,0.007634,-0.004908,
424,0.424,0.003558,-0.001203,0.000317,-0.000921,0.033046,0.024135,0.005125,-0.002220,
425,0.425,0.006803,-0.001578,-0.002062,-0.001655,0.051323,0.022527,0.008182,0.003676,
426,0.426,0.009881,0.002957,-0.000383,-0.001038,0.061230,0.011912,0.007005,-0.000080,
427,0.427,0.001446,-0.001312,-0.001067,-0.001600,0.070052,0.002268,0.006690,-0.003665,
428,0.428,0.002494,-0.000850,-0.004455,-0.001143,0.061895,-0.009083,0.004329,-0.005384,
429,0.429,-0.000523,-0.002420,-0.000241,-0.001696,0.039487,-0.032105,0.009404,-0.007100,
430,0.430,0.000366,-0.002126,0.001434,-0.000553,0.012305,-0.035339,0.000094,0.000651,
431,0.431,-0.000433,-0.000987,-0.004337,-0.002625,0.008604,-0.056166,-0.003634,0.006196,
432,0.432,0.000305,-0.003569,-0.000631,-0.000121,-0.001338,-0.097291,-0.009236,-0.001108,
433,0.433,0.005280,0.001631,0.001387,-0.002511,0.001402,-0.114691,-0.022959,-0.000299,
434,0.434,0.003662,-0.000617,0.003072,-0.004218,-0.017841,-0.098722,-0.009955,0.002200,
435,0.435,0.003233,0.000013,0.005938,-0.004068,-0.050260,-0.064831,-0.008283,-0.003081,
436,0.436,-0.002433,-0.000543,0.006441,-0.002386,-0.054754,-0.025049,-0.012880,0.000438,
437,0.437,0.001372,-0.000082,0.000347,-0.004087,-0.026933,0.012152,-0.011567,0.002097,
438,0.438,0.005034,0.000384,0.002878,-0.000878,-0.001617,0.045913,-0.007875,0.002558,
439,0.439,0.000914,0.001516,0.002194,-0.003085,0.014803,0.076604,-0.000137,-0.000010,
440,0.440,0.003919,-0.000554,-0.001363,-0.004267,0.023670,0.096517,0.000830,0.006904,
441,0.441,0.011829,-0.002459,0.002867,-0.000041,0.026444,0.107372,0.001628,0.001632,
442,0.442,0.010954,-0.003515,0.002358,-0.002919,0.014156,0.091055,0.007491,0.002455,
443,0.443,0.008051,-0.001873,0.003887,-0.000393,0.003015,0.076371,0.003708,0.006659,
444,0.444,0.010920,-0.000558,0.002707,0.000785,-0.011170,0.046533,0.004312,0.002917,
445,0.445,0.010232,0.003291,-0.000165,-0.002090,-0.009289,0.018864,-0.001512,0.000867,
446,0.446,0.008204,-0.000809,-0.005922,-0.001071,-0.004209,0.008179,-0.008511,0.001356,
447,0.447,0.003465,0.004895,-0.000002,0.000635,-0.014864,-0.001625,-0.009422,-0.001534,
448,0.448,-0.002098,0.004181,-0.002205,-0.003057,-0.021797,-0.010550,0.001671,-0.005092,
449,0.449,-0.004110,0.002111,-0.002887,-0.004199,-0.025515,-0.002599,-0.002961,-0.003908,
450,0.450,-0.000373,0.002583,-0.001209,-0.002958,-0.028736,-0.005118,0.001028,0.002507,
451,0.451,-0.001880,0.004232,0.001649,0.002170,-0.031797,-0.003085,0.002144,0.001663,
452,0.452,-0.004559,-0.002568,0.003161,0.004237,-0.043987,-0.005291,0.005293,0.005900,
453,0.453,-0.003850,0.001967,0.000946,0.000047,-0.038918,-0.003578,0.002182,0.000672,
454,0.454,-0.006696,-0.002294,0.001269,0.004149,-0.031323,-0.018905,-0.000584,0.004234,
455,0.455,-0.000073,0.001400,-0.001280,0.000630,-0.021742,-0.033189,-0.001480,0.001191,
456,0.456,-0.002594,-0.002178,0.002595,0.001850,-0.010429,-0.027712,0.002179,0.005263,
457,0.457,0.003525,0.002028,0.001065,0.000698,-0.002783,-0.012586,0.000075,0.004767,
458,0.458,-0.001543,0.000312,-0.000128,0.006479,0.004275,-0.010651,0.005748,0.006978,
459,0.459,-0.000680,0.000789,-0.006559,0.000590,0.020865,-0.020071,0.005011,0.004958,
460,0.460,-0.007454,0.003806,-0.003853,0.001293,0.027657,-0.011724,0.014258,0.001413,
461,0.461,-0.000867,0.005814,-0.001311,0.003349,0.029857,0.005093,0.007955,-0.001614,
462,0.462,0.000136,0.000049,-0.000639,0.005065,0.028125,-0.010554,0.004696,0.001284,
463,0.463,-0.008175,-0.000808,0.002926,0.004583,0.026515,-0.041197,0.001619,-0.001227,
464,0.464,-0.004820,-0.001496,-0.004000,-0.001146,0.018921,-0.071941,-0.001128,-0.004422,
465,0.465,-0.005694,-0.003539,0.000579,0.001078,0.014858,-0.067979,-0.007098,-0.004070,
466,0.466,-0.012013,-0.006594,0.004820,0.003132,-0.004127,-0.085945,0.002841,-0.005068,
467,0.467,-0.005995,-0.006103,-0.003632,0.003656,-0.045334,-0.075965,-0.006856,0.000191,
468,0.468,-0.008069,-0.003575,-0.000415,0.004180,-0.110053,-0.030846,-0.010641,0.002401,
469,0.469,-0.003102,0.000648,0.000613,0.004700,-0.136021,0.014392,-0.007484,-0.002483,
470,0.470,-0.007262,-0.001058,0.001463,0.002512,-0.128266,0.043650,-0.010577,0.000570,
471,0.471,-0.005516,-0.000558,0.000622,-0.000362,-0.092682,0.027698,-0.004183,-0.002290,
472,0.472,0.001283,0.000615,-0.000055,-0.000692,-0.021323,0.032337,0.000008,-0.001757,
473,0.473,0.000453,-0.000572,-0.003616,0.003879,0.045175,0.045398,0.008445,0.001304,
474,0.474,0.001292,-0.002439,0.000606,0.003375,0.105745,0.065226,0.009434,0.000130,
475,0.475,0.003457,0.001440,0.001119,0.003885,0.144977,0.061570,-0.002100,0.002018,
476,0.476,-0.001500,0.004984,-0.000405,0.004394,0.152172,0.051648,0.002429,-0.003191,
477,0.477,0.004188,0.005328,0.005687,0.003212,0.132914,0.024449,0.003740,-0.003829,
478,0.478,-0.005884,0.003299,0.001451,0.001190,0.115462,0.020743,0.004874,-0.005822,
479,0.479,-0.001924,0.000762,0.003637,0.001532,0.099551,0.030374,0.003806,0.001152,
480,0.480,-0.005775,0.001781,0.001599,-0.003701,0.055913,0.033068,0.006797,-0.001513,
481,0.481,-0.009147,0.000775,-0.002631,-0.010629,0.026637,0.002783,0.002169,0.002766,
482,0.482,-0.010337,0.002645,-0.004336,-0.009770,0.000023,-0.017342,-0.000426,0.000620,
483,0.483,-0.007812,0.000286,-0.003498,-0.007898,-0.020045,-0.003618,-0.004042,0.002876,
484,0.484,-0.010718,0.004198,-0.006044,-0.007042,-0.024922,0.014375,-0.003434,-0.000611,
485,0.485,0.000226,0.002518,-0.000976,-0.003312,-0.020698,0.017530,0.001424,0.001149,
486,0.486,-0.013879,-0.001017,-0.001658,-0.002622,-0.032681,0.014652,-0.005563,0.004090,
487,0.487,-0.004832,0.001200,-0.001160,-0.004297,-0.072799,-0.004374,0.004697,-0.002611,
488,0.488,-0.010165,-0.005206,-0.004057,-0.004789,-0.088687,-0.031477,0.005998,-0.003388,
489,0.489,-0.008909,-0.000611,-0.004577,-0.001221,-0.064456,-0.056732,0.002230,-0.002461,
490,0.490,-0.007842,-0.001435,-0.002391,-0.003412,-0.051208,-0.073024,0.001180,-0.000192,
491,0.491,-0.006949,0.000784,-0.004442,0.001341,-0.023242,-0.117906,0.000121,0.000566,
492,0.492,-0.010458,-0.004098,-0.004118,0.000850,-0.012407,-0.137093,0.008527,-0.003597,
493,0.493,-0.005525,-0.001037,-0.000249,0.002544,-0.009229,-0.084081,0.005258,0.002905,
494,0.494,-0.008553,-0.000508,0.003287,0.003062,-0.000529,-0.005693,0.002153,0.000439,
495,0.495,0.000600,0.003075,0.002932,0.000020,0.013014,0.067218,0.002942,-0.001689,
496,0.496,-0.005985,-0.001972,0.002568,-0.006407,0.020103,0.114529,0.005431,-0.003648,
497,0.497,-0.007331,0.001613,0.004398,-0.012823,0.026500,0.105808,0.000146,-0.001891,
498,0.498,-0.004621,0.001134,0.009625,-0.013665,0.028313,0.066615,-0.001914,0.003412,
499,0.499,-0.000392,0.001671,0.007404,-0.009938,0.022533,0.059420,-0.007694,-0.000088,
500,0.500,-0.003263,0.000172,0.002478,-0.002150,0.013894,0.052948,-0.005519,-0.003087,
501,0.501,-0.002904,-0.002854,0.004154,0.003105,0.003066,0.035493,-0.004865,-0.007103,
502,0.502,-0.001190,-0.001646,0.004649,0.000410,-0.004038,0.008896,-0.007927,-0.004524,
503,0.503,0.001534,-0.002640,0.001080,0.002962,0.002059,0.013574,-0.010808,0.000589,
504,0.504,0.005287,-0.000246,0.002242,0.003645,-0.001295,0.035507,-0.005056,-0.002944,
505,0.505,-0.002793,-0.002593,0.000197,0.004327,-0.017143,0.031549,0.003402,0.000119,
506,0.506,0.007237,0.000480,-0.000838,0.006021,-0.050911,0.013379,0.006622,0.000642,
507,0.507,-0.002679,0.002527,-0.002538,0.003141,-0.065379,0.003509,-0.000642,0.005395,
508,0.508,0.008386,0.000017,-0.003568,0.005676,-0.061021,-0.017342,-0.003328,0.007104,
509,0.509,0.006601,-0.000301,-0.003414,0.002642,-0.041067,-0.031080,-0.007520,0.004236,
510,0.510,0.004996,-0.002652,0.000462,0.005519,-0.015682,-0.023820,-0.005286,0.001705,
511,0.511,0.003578,-0.001956,-0.008351,0.002975,0.000743,-0.030354,-0.010152,-0.000491,
512,0.512,-0.002225,-0.000241,-0.007174,0.001954,0.027818,-0.056774,-0.000628,0.005926,
513,0.513,-0.003444,-0.000904,-0.003963,0.000930,0.031384,-0.053096,0.003477,0.010474,
514,0.514,0.010399,0.001474,-0.004979,-0.001620,0.021587,-0.076026,0.002347,0.004526,
515,0.515,0.008197,0.006557,-0.000419,0.002930,0.030421,-0.090871,0.005621,0.006684,
516,0.516,-0.016155,0.000139,0.000431,0.003418,0.033211,-0.049703,0.008733,0.007315,
517,0.517,0.013471,0.000991,-0.004812,0.003906,0.040564,-0.008659,0.002383,0.003039,
518,0.518,0.001512,0.004728,0.002964,0.003375,0.020295,0.028776,-0.000078,0.008225,
519,0.519,0.004968,0.001195,0.001942,0.006394,-0.015427,0.033774,-0.006936,0.003261,
520,0.520,0.008104,0.002910,0.002787,0.003496,-0.059139,0.047275,-0.004146,-0.002567,
521,0.521,0.010916,-0.001133,0.007015,0.000926,-0.088456,0.059461,-0.013523,0.001072,
522,0.522,0.008165,-0.000606,0.004824,0.001236,-0.072576,0.048894,-0.007154,0.005899,
523,0.523,0.010509,0.002453,-0.004478,0.001544,-0.038725,0.019287,-0.003823,-0.003669,
524,0.524,0.012703,0.000440,-0.000754,0.000844,0.009880,0.015462,0.003567,-0.005112,
525,0.525,0.010693,-0.004622,-0.001760,0.001002,0.042269,0.019035,0.004528,-0.008932,
526,0.526,0.012588,-0.002581,0.003497,-0.002738,0.059764,0.022257,0.008856,-0.008009,
527,0.527,0.007564,-0.000882,0.004347,-0.000216,0.022589,0.031070,0.008280,-0.007092,
528,0.528,0.015252,-0.002568,0.003516,-0.004471,-0.011259,0.017452,0.010413,-0.008038,
529,0.529,0.022263,-0.004089,-0.001717,-0.001622,-0.015701,0.015183,0.008812,-0.007299,
530,0.530,0.021180,-0.001890,0.003200,-0.005195,0.012127,0.004082,0.004840,-0.005188,
531,0.531,0.013511,-0.001549,0.001522,-0.002176,0.037372,-0.014340,0.007467,-0.011717,
532,0.532,0.016690,-0.005097,0.002043,-0.002552,0.053623,-0.026749,0.006361,-0.014358,
533,0.533,0.017685,0.001004,0.000532,-0.001565,0.056342,-0.024651,0.003555,-0.012249,
534,0.534,0.013641,-0.001532,0.000207,-0.003961,0.015074,-0.022735,0.008702,-0.010314,
535,0.535,0.016024,-0.000851,0.001402,-0.004320,-0.049689,-0.047053,0.012328,-0.007365,
536,0.536,0.008436,-0.002880,0.003956,-0.003658,-0.041175,-0.043983,0.009361,-0.006952,
537,0.537,0.007611,-0.004569,-0.001280,-0.000804,-0.033495,-0.017009,0.008922,-0.013808,
538,0.538,0.008668,0.000675,-0.001939,0.001711,-0.026489,-0.006245,0.005427,-0.005464,
539,0.539,0.006367,0.001346,0.001624,-0.003554,-0.020138,-0.009505,0.010554,-0.008791,
540,0.540,0.004396,-0.001701,-0.001410,-0.001375,0.009129,-0.006700,0.014140,-0.001617,
541,0.541,0.006672,0.003536,0.002658,0.005039,0.025123,-0.009458,0.015873,-0.006269,
542,0.542,0.003868,0.001501,-0.000879,0.000802,0.049529,-0.026805,0.013046,-0.002129,
543,0.543,-0.001131,-0.002736,-0.001193,0.004508,0.071732,-0.006586,0.008368,-0.004409,
544,0.544,-0.002913,0.001324,0.001708,0.002465,0.075816,0.012495,-0.001048,-0.005168,
545,0.545,-0.004347,-0.004429,0.002753,-0.004480,0.072424,0.029802,-0.007935,-0.001016,
546,0.546,-0.005774,0.002508,-0.002455,0.001938,0.062764,0.036572,-0.011626,0.000593,
547,0.547,-0.007035,-0.000206,-0.000225,-0.002312,0.035858,0.014367,-0.003807,0.003055,
548,0.548,-0.009825,0.002333,-0.000874,-0.003000,0.017925,-0.006195,-0.006821,0.007217,
549,0.549,-0.014303,0.004526,-0.002539,-0.005034,0.008284,-0.008704,-0.004093,0.010037,
550,0.550,-0.012354,0.000970,-0.002002,-0.001990,0.005553,0.003834,-0.004931,0.007436,
551,0.551,-0.006861,-0.000724,0.001582,-0.003671,-0.002449,0.019500,-0.010171,0.008555,
552,0.552,-0.010169,-0.001242,0.002793,-0.001118,-0.009580,0.021530,-0.012192,0.013228,
553,0.553,-0.011630,-0.000739,-0.001069,0.000082,-0.016008,0.019536,-0.010507,0.011476,
554,0.554,-0.007350,-0.001927,0.000478,-0.000242,-0.013807,0.017620,-0.011032,0.007361,
555,0.555,-0.012896,0.002808,-0.004566,0.003326,-0.015536,0.018901,-0.008504,0.005791,
556,0.556,-0.005779,-0.001424,0.000359,0.000295,-0.040830,0.020013,-0.012732,0.000674,
557,0.557,-0.006452,0.001448,-0.000126,-0.005273,-0.051632,0.016006,-0.016788,0.004191,
558,0.558,-0.005455,0.002967,-0.002983,-0.003060,-0.048411,-0.001413,-0.011037,0.001117,
559,0.559,-0.012244,0.002624,0.001770,0.001855,-0.045516,-0.038970,-0.007326,-0.001789,
560,0.560,-0.007546,-0.000259,-0.002431,0.002367,-0.037338,-0.065833,-0.015131,0.003941,
561,0.561,-0.008285,0.001590,-0.002909,0.002888,-0.039605,-0.051712,-0.009915,0.007642,
562,0.562,-0.007519,0.003277,-0.001370,0.003402,-0.037288,-0.021158,-0.012660,0.006942,
563,0.563,-0.011000,0.002933,-0.000165,0.002221,-0.051360,-0.001434,-0.013545,0.011158,
564,0.564,-0.006716,-0.000108,-0.004027,0.004251,-0.071689,0.001910,-0.014268,0.010633,
565,0.565,-0.008362,0.001922,0.000727,0.003917,-0.063409,-0.021296,-0.010772,0.007067,
566,0.566,-0.010870,-0.003819,0.001255,0.004950,-0.035972,-0.066472,-0.009133,0.013146,
567,0.567,-0.013079,-0.002976,0.004161,0.005303,-0.010356,-0.047300,-0.006312,0.008910,
568,0.568,-0.009194,-0.003646,0.000621,0.001094,0.026284,-0.041605,-0.002821,0.012629,
569,0.569,-0.008722,-0.000090,0.001838,0.005344,0.040884,-0.046880,-0.007956,0.013313,
570,0.570,-0.007590,-0.001780,-0.003724,0.000120,0.054242,-0.003254,-0.007343,0.003841,
571,0.571,-0.004780,0.002285,0.000018,0.000816,0.066175,0.049736,-0.005721,0.010786,
572,0.572,-0.007400,-0.001263,-0.000637,-0.000855,0.062634,0.099551,0.001822,0.004534,
573,0.573,-0.012074,-0.000073,-0.001131,-0.008449,0.052880,0.106041,0.002775,0.005574,
574,0.574,-0.007960,0.002811,-0.002825,-0.003187,0.044215,0.076786,0.007274,-0.001691,
575,0.575,-0.009782,0.004678,0.002935,-0.004014,0.030707,0.039541,0.008057,-0.002537,
576,0.576,-0.011466,0.003661,-0.000794,0.001928,0.023637,-0.033254,0.007315,-0.003370,
577,0.577,-0.005550,0.003323,-0.000116,0.001272,0.008268,-0.043643,0.013668,-0.001147,
578,0.578,-0.008277,0.001469,0.000395,-0.002250,0.006388,-0.015309,0.012736,-0.010419,
579,0.579,-0.006276,-0.000894,-0.001304,-0.000526,0.000882,0.010471,0.010454,-0.004128,
580,0.580,-0.010038,-0.003260,-0.002838,0.004752,-0.000779,0.033693,0.012388,-0.000875,
581,0.581,-0.008586,-0.006299,-0.000648,0.001230,-0.011412,0.040679,0.013968,-0.012324,
582,0.582,-0.017630,-0.001554,0.000527,0.002950,-0.010045,0.047030,0.007425,-0.007702,
583,0.583,-0.006556,-0.001044,0.001529,0.001287,-0.011256,0.052719,0.006461,-0.008995,
584,0.584,0.002641,-0.000859,0.002360,-0.000367,-0.014709,0.047412,0.004318,-0.007750,
585,0.585,0.003879,-0.003726,0.006237,0.005415,-0.013810,-0.000696,0.004883,-0.008861,
586,0.586,0.002240,-0.001174,0.000473,0.004779,-0.019187,-0.033097,0.015434,0.003734,
587,0.587,-0.009391,0.000020,0.004177,0.004149,-0.016596,-0.050590,0.013807,0.002120,
588,0.588,0.004174,0.000363,0.003478,0.004719,-0.029568,-0.034650,0.017769,-0.005424,
589,0.589,-0.001718,0.002913,0.006495,-0.000447,-0.057611,-0.039310,0.006350,-0.012277,
590,0.590,0.006426,0.001911,0.000043,-0.001042,-0.093784,-0.017275,-0.001339,-0.005938,
591,0.591,0.004585,0.000899,-0.004210,0.003274,-0.060099,-0.013372,-0.005464,-0.011432,
592,0.592,0.008334,-0.002136,-0.002027,0.001666,-0.029474,0.004731,-0.009246,-0.004075,
593,0.593,0.001766,-0.000946,-0.002723,-0.000794,0.006396,-0.005086,-0.006107,-0.006693,
594,0.594,0.002474,-0.000603,-0.006972,-0.001898,0.020601,-0.050076,0.003285,-0.002382,
595,0.595,0.001153,0.001769,-0.002929,0.002916,0.016020,-0.108413,-0.003061,-0.004503,
596,0.596,0.003549,-0.001953,-0.000414,-0.005304,0.011943,-0.085002,-0.004175,-0.006457,
597,0.597,0.002411,0.002276,0.001762,-0.006245,0.008194,-0.077815,-0.001211,-0.006887,
598,0.598,0.002817,0.000583,-0.002991,-0.003133,0.017794,-0.071312,0.003298,-0.001567,
599,0.599,0.003233,-0.001948,-0.007233,-0.003918,0.026382,-0.018295,0.004086,0.000547,
600,0.600,0.002480,0.002283,-0.002008,-0.002999,0.001486,0.031500,-0.001200,0.001130,
601,0.601,0.007496,-0.000597,-0.004070,-0.003592,-0.015116,0.089923,0.005183,0.002887,
602,0.602,0.009311,-0.001113,-0.002405,-0.001468,-0.006511,0.129096,0.007683,0.004471,
603,0.603,0.012153,-0.000781,-0.005295,-0.000869,0.018002,0.122132,0.002395,0.000303,
604,0.604,0.013663,-0.000450,0.001447,-0.000275,0.040811,0.090062,-0.002553,0.000864,
605,0.605,0.015021,0.001403,-0.001282,0.000314,0.055514,0.084565,-0.006819,-0.000611,
606,0.606,0.012670,0.001731,0.001224,-0.000787,0.058054,0.090106,-0.009714,0.000617,
607,0.607,0.010501,0.000706,0.001878,0.003174,0.050616,0.066125,-0.006171,0.003530,
608,0.608,0.007841,0.002053,-0.004572,0.003734,0.034886,0.026540,-0.001940,-0.002189,
609,0.609,0.010952,0.003226,-0.002063,-0.000443,0.016289,0.000123,0.000941,-0.001318,
610,0.610,0.008831,-0.000506,0.001640,0.002494,0.008904,-0.014153,0.002484,0.002426,
611,0.611,0.006233,0.001000,0.000939,0.004073,0.002229,-0.018541,0.005565,0.001777,
612,0.612,0.005850,-0.005097,-0.002134,0.005310,-0.007969,-0.022489,0.007639,0.007548,
613,0.613,0.007523,-0.000877,0.005456,0.000614,-0.032163,-0.026108,0.008030,0.002314,
614,0.614,0.003287,-0.004612,0.004421,-0.003580,-0.055162,-0.029386,0.002845,0.003006,
615,0.615,0.004996,0.000280,-0.002028,-0.000674,-0.075982,-0.032305,0.000706,0.002504,
616,0.616,0.007907,-0.005493,0.005741,-0.003182,-0.084114,-0.035067,-0.002780,-0.000376,
617,0.617,0.006440,-0.000274,-0.003736,-0.002817,-0.056876,-0.027880,-0.006943,-0.001899,
618,0.618,0.006843,-0.000970,0.002519,0.000078,-0.031479,-0.034547,-0.008558,0.001140,
619,0.619,0.004903,-0.002683,0.001492,-0.000249,-0.001657,-0.065203,-0.002714,-0.003608,
620,0.620,0.004005,-0.003199,0.000465,-0.001934,0.042422,-0.078397,-0.007876,0.003314,
621,0.621,0.005142,-0.002708,0.003156,0.001779,0.025206,-0.066475,-0.007115,-0.003140,
622,0.622,0.000222,-0.002383,0.005683,0.002111,-0.001141,-0.040974,-0.001288,0.004614,
623,0.623,-0.000283,-0.001217,0.000436,0.002430,-0.015347,-0.011065,-0.001890,0.011858,
624,0.624,0.006839,0.002313,0.008211,0.001382,-0.010821,0.008986,-0.001139,0.003366,
625,0.625,0.004341,0.001953,0.002954,0.000334,-0.006848,0.019845,0.004685,0.000109,
626,0.626,0.000333,-0.000945,0.000239,-0.002078,-0.010368,0.029634,0.006950,-0.000947,
627,0.627,0.001239,0.000044,0.004460,-0.003988,0.012646,0.026667,0.003452,0.001716,
628,0.628,0.000815,0.001706,0.002246,-0.001166,0.033432,0.034732,0.006555,0.000829,
629,0.629,0.009366,0.001342,0.001561,0.001304,0.041513,0.022435,0.011857,-0.004466,
630,0.630,-0.000683,-0.000036,-0.000146,0.005122,0.043821,-0.011065,0.011239,-0.005181,
631,0.631,0.000942,0.001625,0.000349,0.004542,0.054921,-0.015614,0.009613,-0.005714,
632,0.632,0.004958,-0.002121,-0.000166,0.000228,0.056887,-0.002116,0.002059,-0.000507,
633,0.633,-0.000331,0.000385,-0.001360,0.004203,0.040089,0.010015,0.003129,-0.004083,
634,0.634,-0.003065,-0.002682,-0.002558,-0.001638,0.006397,0.021045,0.000480,-0.002407,
635,0.635,-0.003584,0.000174,0.000987,-0.003927,0.001646,0.017927,-0.003702,-0.000727,
636,0.636,-0.000711,0.002686,-0.000198,-0.010440,0.006058,-0.027125,-0.007383,0.002806,
637,0.637,0.000285,0.000302,0.002670,-0.016449,0.017914,-0.033704,-0.015129,-0.000247,
638,0.638,-0.000084,-0.000051,0.000803,-0.017224,0.021496,-0.004639,-0.014089,0.000073,
639,0.639,0.001915,0.004159,-0.001569,-0.015293,0.031347,0.021721,-0.016780,-0.000961,
640,0.640,-0.001835,0.001099,-0.003939,-0.007120,0.034296,0.026237,-0.014245,0.000035,
641,0.641,-0.003059,0.001597,-0.004627,-0.004026,0.026258,0.021638,-0.004270,-0.001673,
642,0.642,-0.003956,-0.000951,-0.003454,-0.003131,0.024052,0.025363,-0.000223,0.000166,
643,0.643,-0.000798,0.002076,-0.003289,-0.002404,0.008674,0.021697,0.000940,0.001848,
644,0.644,0.005224,0.000889,-0.000085,0.000017,-0.009548,-0.001452,0.008701,0.004034,
645,0.645,-0.002302,0.003424,-0.002291,0.000576,-0.021676,-0.010441,-0.000782,0.000986,
646,0.646,-0.009335,0.001737,-0.004328,0.002502,-0.032649,-0.018780,-0.004511,0.000653,
647,0.647,-0.008264,-0.002661,-0.006866,0.005445,-0.042624,-0.021293,-0.001290,-0.004426,
648,0.648,-0.010589,0.000222,-0.001627,-0.003440,-0.048054,-0.010244,-0.004328,-0.000869,
649,0.649,-0.009723,0.001744,0.006830,-0.007240,-0.042821,-0.000195,0.002121,0.000830,
650,0.650,-0.004645,0.002086,0.003623,-0.012896,-0.038100,-0.013257,-0.000391,0.000340,
651,0.651,-0.003992,-0.000781,-0.003619,-0.007727,-0.033928,-0.038627,0.008076,-0.001163,
652,0.652,-0.007908,0.000245,0.000974,-0.003231,-0.017425,-0.093224,0.011300,-0.000797,
653,0.653,-0.005251,-0.000087,0.000162,-0.000768,-0.015134,-0.085349,0.010294,-0.002809,
654,0.654,-0.005480,0.002964,0.003910,-0.000167,-0.017060,-0.092345,0.003858,-0.003814,
655,0.655,0.001029,-0.000576,0.000395,0.004665,-0.018822,-0.021083,-0.000390,-0.003474,
656,0.656,0.000240,-0.001746,-0.000081,0.010343,-0.006882,0.007344,-0.004142,-0.000431,
657,0.657,-0.002269,0.001142,0.002829,0.009593,0.003866,0.015971,0.002238,0.000585,
658,0.658,-0.002936,-0.000710,-0.000698,0.003099,-0.011268,0.023696,-0.002036,-0.001100,
659,0.659,-0.007865,0.000992,0.000507,0.003870,-0.013227,0.073320,-0.010536,-0.002104,
660,0.660,-0.006215,-0.004071,0.003405,0.003116,-0.018749,0.118327,-0.007357,0.002135,
661,0.661,-0.010352,-0.002025,0.000899,0.007952,-0.030523,0.123908,-0.008401,0.005193,
662,0.662,-0.007910,-0.000316,-0.000085,0.006203,-0.025891,0.107846,-0.007592,-0.000039,
663,0.663,-0.007689,-0.001996,-0.001086,0.006645,-0.005034,0.073841,-0.003399,0.002010,
664,0.664,-0.009011,0.003767,-0.002923,0.003032,0.015785,0.051679,-0.001230,0.003712,
665,0.665,-0.010193,0.001581,-0.006785,0.000768,0.029480,0.039674,0.002282,0.000856,
666,0.666,-0.005133,-0.000431,-0.003894,0.002743,0.031820,0.035968,-0.000798,-0.000646,
667,0.667,-0.007532,0.000091,-0.000315,0.001672,0.029592,0.012823,-0.007247,0.002409,
668,0.668,-0.012661,-0.005138,0.000879,0.003312,-0.001010,-0.014331,-0.001347,0.000383,
669,0.669,-0.003436,-0.000215,0.000555,0.006312,-0.067099,-0.039758,-0.000695,0.000733,
670,0.670,-0.013341,-0.000709,-0.000448,0.001199,-0.057546,-0.043038,0.007059,0.003948,
671,0.671,-0.014808,0.000996,-0.003650,0.006065,-0.031570,-0.034244,0.010073,0.000060,
672,0.672,-0.014086,0.003552,-0.000769,0.006549,-0.008168,-0.020502,0.007336,0.001584,
673,0.673,-0.015412,0.003910,0.003468,0.007030,0.013193,-0.018035,0.008160,0.002779,
674,0.674,-0.013038,0.003586,0.002960,0.008528,0.032565,-0.015692,0.008806,0.001609,
675,0.675,-0.009148,0.003949,0.001442,0.011552,0.038474,-0.013498,0.010811,0.002626,
676,0.676,-0.011693,0.004988,0.005667,0.007645,0.043894,-0.033798,0.006566,0.002285,
677,0.677,-0.011389,-0.000075,0.001603,0.010166,0.048776,-0.074764,0.001310,0.004648,
678,0.678,-0.007520,-0.002094,0.005148,0.008966,0.053270,-0.115596,-0.003605,0.000421,
679,0.679,-0.003837,0.000969,0.002098,0.006929,0.049426,-0.099598,-0.009366,-0.005322,
680,0.680,-0.011988,-0.003074,0.000905,0.007270,0.038578,-0.152813,-0.005651,-0.001595,
681,0.681,-0.009172,0.004720,0.003431,0.003389,0.028680,-0.117241,-0.009221,-0.005140,
682,0.682,-0.008536,-0.000851,0.005110,0.000855,0.013695,-0.045982,-0.010927,-0.008178,
683,0.683,-0.009756,-0.001859,0.000697,-0.002187,0.005486,0.020379,-0.005709,-0.006473,
684,0.684,-0.012669,0.000854,-0.001011,-0.005052,-0.006965,0.080869,-0.002181,0.000301,
685,0.685,-0.001537,-0.003026,-0.000863,-0.006066,-0.004231,0.112642,0.004384,0.001156,
686,0.686,-0.001228,-0.002179,0.000637,-0.001829,-0.006581,0.120582,0.006041,0.005736,
687,0.687,0.006204,0.001551,-0.001582,-0.003516,-0.012801,0.113594,0.008890,0.001524,
688,0.688,-0.001408,-0.000472,-0.001934,0.002238,-0.037085,0.107282,0.009372,-0.000656,
689,0.689,0.006728,-0.003516,0.001598,0.002930,-0.040402,0.090044,0.004284,0.002918,
690,0.690,0.007439,-0.003002,-0.000620,0.002273,-0.049300,0.053068,0.004945,0.004633,
691,0.691,0.006142,0.000559,-0.002682,-0.001927,-0.030293,0.019450,0.007978,0.001782,
692,0.692,0.003172,-0.006373,0.001521,-0.004766,-0.023142,0.023990,0.007481,0.002306,
693,0.693,0.007168,-0.005352,-0.001380,-0.005234,-0.016670,0.027966,0.003938,-0.000719,
694,0.694,0.007628,-0.006194,0.002153,-0.010261,-0.002616,0.017192,-0.002991,-0.006284,
695,0.695,0.011003,-0.003650,-0.000071,-0.013762,0.002780,-0.005794,-0.012442,0.000668,
696,0.696,0.009151,-0.004315,0.003804,-0.019464,0.011044,-0.008665,-0.008708,-0.003883,
697,0.697,0.014255,0.000592,-0.001971,-0.018738,0.006296,-0.005939,-0.014276,-0.001336,
698,0.698,0.013464,-0.002446,-0.007242,-0.018009,0.007471,-0.013182,-0.015273,-0.006581,
699,0.699,0.019123,-0.001928,-0.017909,-0.011025,0.013554,-0.015326,-0.006798,-0.005900,
700,0.700,0.009091,-0.003439,-0.010303,-0.010129,0.012390,-0.021342,-0.003560,-0.008940,
701,0.701,0.013153,0.000802,-0.011662,-0.004166,0.015300,-0.049187,-0.002520,-0.001325,
702,0.702,0.006925,0.001321,-0.005425,-0.000392,0.014357,-0.077044,0.003941,0.001727,
703,0.703,0.012567,-0.001211,-0.006457,0.000341,0.018566,-0.058863,0.006505,0.006296,
704,0.704,0.013686,-0.000021,-0.003428,0.002093,0.011624,-0.042259,0.010256,0.007141,
705,0.705,0.014662,0.001171,-0.002602,0.002652,0.003156,-0.039155,0.018057,0.004944,
706,0.706,0.010596,0.003716,0.003300,0.001186,-0.013956,-0.019774,0.015025,0.001400,
707,0.707,0.016030,0.002702,0.002608,0.008179,-0.016337,-0.007230,0.012332,-0.004340,
708,0.708,0.014231,0.002367,0.003263,0.007219,-0.022910,0.013270,0.006430,-0.002125,
709,0.709,0.020252,-0.001861,-0.000986,0.004555,-0.028911,0.016154,0.001205,-0.001438,
710,0.710,0.015300,-0.001343,-0.000494,-0.001322,-0.026927,0.013920,0.004780,-0.000922,
711,0.711,0.014948,0.000353,0.007276,0.005652,-0.018366,0.025194,0.003118,-0.002600,
712,0.712,0.014794,0.003906,0.004050,0.001123,-0.001405,0.027267,-0.003280,-0.000052,
713,0.713,0.016860,0.000863,-0.001206,0.003696,0.005183,0.025453,-0.000708,-0.005112,
714,0.714,0.015743,0.001206,0.003345,0.001525,0.015289,0.023795,-0.005904,-0.005785,
715,0.715,0.013133,0.001551,-0.000900,0.003575,0.020814,0.019332,-0.015155,0.001156,
716,0.716,0.014786,0.003926,0.004319,0.003082,0.012316,-0.001384,-0.013927,0.003856,
717,0.717,0.017810,0.001562,0.003624,0.002592,0.004658,-0.016237,-0.008289,0.001312,
718,0.718,0.013077,0.003429,0.003097,0.000065,0.003252,-0.008134,-0.000972,0.005032,
719,0.719,0.014271,0.003263,0.001387,0.003121,0.009421,-0.035438,-0.000077,0.007053,
720,0.720,0.011255,0.000056,0.006113,-0.003298,0.010322,-0.032038,0.000817,0.002812,
721,0.721,0.010119,-0.000278,0.003058,0.001279,-0.005497,-0.035473,0.000190,0.001110,
722,0.722,0.014743,0.003954,0.003547,0.002128,-0.039203,-0.032854,0.005135,0.001603,
723,0.723,0.014824,-0.001282,0.003029,0.001461,-0.073051,-0.025014,0.000951,0.002775,
724,0.724,0.008491,-0.001945,0.003359,-0.000552,-0.068627,-0.018019,-0.000711,0.003104,
725,0.725,0.016371,0.003813,0.000480,0.001150,-0.040666,0.006462,-0.003222,0.004100,
726,0.726,0.002951,0.004494,0.003016,0.002854,0.006776,0.022761,-0.006248,0.000188,
727,0.727,0.009673,-0.000411,-0.000868,0.000322,0.039198,0.025536,-0.003347,-0.004572,
728,0.728,0.004724,-0.000911,0.000661,-0.001865,0.068589,0.028175,-0.002310,-0.004090,
729,0.729,0.013804,0.000780,0.000326,-0.002195,0.084609,0.020855,0.002950,-0.003604,
730,0.730,0.000547,0.002306,0.000664,0.002890,0.070319,0.023038,-0.000754,-0.002108,
731,0.731,-0.000719,0.001124,0.001002,0.002221,0.039585,0.024957,0.002821,-0.001796,
732,0.732,-0.001824,0.003161,0.000669,0.000536,0.019634,-0.003068,0.002345,0.000195,
733,0.733,-0.002769,-0.002589,0.003047,0.004599,0.016065,-0.023114,0.006445,0.000504,
734,0.734,-0.000861,0.005190,0.004407,0.001048,0.012813,-0.034028,0.005984,-0.000545,
735,0.735,-0.006589,-0.000043,0.000524,0.002237,-0.002125,-0.024274,-0.000059,-0.001588,
736,0.736,-0.007085,-0.000887,-0.002351,0.003423,-0.021288,-0.015523,-0.000866,-0.004664,
737,0.737,-0.009631,0.001655,0.000193,-0.000799,-0.014078,-0.034661,-0.004544,-0.005035,
738,0.738,-0.011870,-0.000530,-0.002003,0.000899,-0.011944,-0.047015,0.000399,-0.006082,
739,0.739,-0.017354,-0.004074,0.004436,0.002431,-0.009989,-0.022301,0.003475,-0.005103,
740,0.740,-0.017633,-0.001029,-0.000119,0.000249,-0.008192,0.020723,-0.002929,-0.000063,
741,0.741,-0.023684,-0.003900,0.000739,-0.000079,-0.009914,0.049989,0.001321,-0.000763,
742,0.742,-0.017428,-0.000337,-0.002974,-0.003622,0.000787,0.055131,0.003548,0.000898,
743,0.743,-0.024058,-0.003379,0.001953,-0.003956,0.010504,0.050188,-0.001341,0.002556,
744,0.744,-0.022939,-0.005401,-0.004963,-0.001073,0.011780,0.045525,-0.000822,-0.001032,
745,0.745,-0.021857,0.000355,-0.000375,-0.000728,0.001553,0.025252,-0.002511,0.003161,
746,0.746,-0.017930,-0.005559,0.000483,-0.001059,0.002995,0.014059,-0.000981,0.006010,
747,0.747,-0.014213,-0.004873,-0.006427,-0.003411,0.006792,0.003871,-0.000610,0.003443,
748,0.748,-0.021007,-0.004177,-0.003704,-0.005235,0.001251,-0.005308,-0.000235,0.003760,
749,0.749,-0.031243,-0.003657,-0.006225,-0.001302,0.002295,-0.008371,-0.001208,0.002544,
750,0.750,-0.027130,-0.004150,0.000727,-0.002937,-0.011725,-0.011041,-0.001506,-0.001028,
751,0.751,-0.025946,0.000598,-0.000095,-0.001362,-0.042295,-0.044980,0.003626,0.001992,
752,0.752,-0.029191,0.000111,-0.000920,-0.003500,-0.037797,-0.088884,-0.001241,0.001638,
753,0.753,-0.024039,0.000639,0.002840,0.002986,-0.025872,-0.083392,0.001836,-0.000915,
754,0.754,-0.019605,-0.000859,-0.000674,0.000338,-0.007676,-0.046383,0.003550,-0.004817,
755,0.755,-0.017232,0.002201,-0.002322,0.001249,-0.004400,0.016565,0.002057,-0.004333,
756,0.756,-0.024361,0.002563,0.002963,-0.000885,-0.019237,0.007812,0.002427,-0.005545,
757,0.757,-0.027304,0.002237,-0.000537,0.001212,-0.060292,0.015494,0.000408,-0.003543,
758,0.758,-0.021653,-0.002305,-0.002190,-0.000416,-0.065982,0.050942,-0.004657,-0.001702,
759,0.759,-0.019768,-0.000599,-0.002659,0.001336,-0.039369,0.057340,-0.003982,-0.003410,
760,0.760,-0.019445,0.003477,-0.003132,0.001903,0.004352,0.063105,-0.002292,-0.000377,
761,0.761,-0.010358,0.002988,-0.002758,0.000771,0.045364,0.015097,-0.001773,-0.006133,
762,0.762,-0.012130,0.000812,0.000153,0.002852,0.072009,-0.017168,-0.006494,0.001643,
763,0.763,-0.013748,0.002012,0.000526,0.004751,0.076823,-0.081764,-0.005972,0.000627,
764,0.764,-0.017413,0.000160,0.004448,0.004443,0.054906,-0.073119,0.002855,0.005197,
765,0.765,-0.008419,0.000507,0.002947,0.002109,0.043122,-0.034023,-0.005892,0.002664,
766,0.766,-0.010110,0.000183,0.006009,0.004674,0.032333,-0.012674,-0.000278,0.000471,
767,0.767,-0.002849,-0.001150,0.004846,0.003007,0.029172,0.006682,0.000777,0.002516,
768,0.768,0.001859,0.000563,-0.000211,0.003378,0.008475,0.047711,0.001666,0.004209,
769,0.769,-0.005116,0.002268,-0.000869,-0.000827,0.005936,0.085051,0.004247,0.002530,
770,0.770,0.000256,0.003635,0.003377,0.004942,-0.001137,0.099557,0.009529,0.002032,
771,0.771,-0.005553,0.000595,0.000516,-0.001983,-0.003171,0.104099,0.001779,-0.000154,
772,0.772,-0.005466,-0.003285,0.001035,-0.006543,-0.017282,0.084274,0.009081,-0.001333,
773,0.773,0.000869,0.001462,-0.001999,-0.002307,-0.022852,0.029782,0.008268,0.002905,
774,0.774,-0.000579,0.001973,-0.003173,-0.002976,-0.038147,-0.040583,0.010838,0.003419,
775,0.775,-0.005411,0.003661,-0.005696,-0.002293,-0.056679,-0.049883,0.000895,0.002920,
776,0.776,-0.002295,-0.004112,-0.006020,-0.005328,-0.059127,-0.075596,-0.000428,0.004110,
777,0.777,0.007753,0.001472,-0.000934,-0.003628,-0.048023,-0.083205,0.000778,-0.002306,
778,0.778,0.011713,0.000459,-0.000250,-0.006151,-0.029629,-0.061739,-0.002412,-0.001451,
779,0.779,0.015171,-0.000381,0.000260,-0.003930,-0.012393,-0.003215,-0.001379,0.001094,
780,0.780,0.015786,0.000463,-0.001418,-0.004237,0.007891,0.036028,-0.007797,0.006350,
781,0.781,0.014186,0.001136,-0.002930,-0.002348,0.015973,0.057529,-0.010330,-0.001413,
782,0.782,0.018878,0.003162,-0.001736,-0.000628,0.023196,0.077002,-0.008133,0.003849,
783,0.783,0.021037,-0.003775,-0.002070,-0.002970,0.025351,0.059753,-0.004585,0.003020,
784,0.784,0.021360,0.000785,0.003687,0.001283,0.023273,0.033364,0.003700,0.003874,
785,0.785,0.018650,-0.000058,0.001150,0.001806,0.032521,-0.010104,0.000480,0.006078,
786,0.786,0.024911,-0.002937,0.002842,0.002830,0.028206,-0.047978,0.004015,0.000669,
787,0.787,0.020887,-0.000735,-0.000875,0.004529,0.023019,-0.077041,0.005018,0.001361,
788,0.788,0.029910,0.004176,0.001165,-0.000207,0.018356,-0.114061,0.004165,0.001892,
789,0.789,0.019844,0.001129,0.000661,0.004016,0.000164,-0.089687,0.005017,-0.005685,
790,0.790,0.023172,-0.000579,0.002361,0.002320,-0.027167,-0.032140,-0.000219,-0.002608,
791,0.791,0.017221,0.000943,-0.002371,0.004844,-0.030781,0.038662,0.004694,0.000131,
792,0.792,0.015864,-0.000245,-0.001859,0.004492,-0.027552,0.067418,0.004189,-0.000681,
793,0.793,0.016408,0.001791,0.001017,0.002447,-0.012512,0.076514,0.004697,-0.002850,
794,0.794,0.011909,0.002802,0.004577,0.002768,-0.004174,0.084802,-0.003104,-0.003493,
795,0.795,0.012350,0.000429,-0.001515,-0.002491,0.008374,0.078178,-0.013440,-0.002957,
796,0.796,0.004374,-0.002613,0.001032,-0.010970,0.024103,0.072095,-0.014818,-0.005803,
797,0.797,0.015715,-0.000073,0.000365,-0.007782,0.026206,0.043110,-0.013664,-0.000012,
798,0.798,0.011018,-0.001080,-0.003187,-0.008832,0.028098,0.006071,-0.003366,-0.005216,
799,0.799,0.012262,0.000617,-0.000142,-0.002441,0.002670,-0.008177,-0.010309,-0.001626,
800,0.800,0.008463,-0.003090,0.002736,-0.003322,-0.030236,-0.021313,0.003537,-0.001088,
801,0.801,0.018738,-0.002572,-0.003009,0.001885,-0.017202,-0.017413,0.009100,0.000626,
802,0.802,0.020074,-0.005599,-0.002328,0.001170,-0.021296,-0.020987,0.014152,0.000139,
803,0.803,0.013831,0.000840,-0.003005,-0.003105,-0.003389,-0.030802,0.006504,0.007096,
804,0.804,0.006106,-0.003722,0.000045,-0.002635,-0.000334,-0.027818,0.005113,0.006104,
805,0.805,0.007199,0.004063,-0.004018,-0.005208,-0.009237,-0.019532,0.011329,0.003418,
806,0.806,0.008150,-0.005400,0.003762,0.000843,-0.012006,-0.016956,0.005699,-0.004334,
807,0.807,0.010804,0.000866,0.002752,-0.000046,-0.004787,-0.027968,0.006662,-0.003285,
808,0.808,0.014673,-0.002338,0.001739,-0.002297,-0.016025,-0.046298,0.002039,-0.004099,
809,0.809,0.008412,-0.003351,0.000890,-0.001677,-0.005905,-0.048547,-0.005796,-0.006607,
810,0.810,0.007753,-0.004189,0.003422,0.002495,-0.003974,-0.037178,-0.008896,-0.004379,
811,0.811,-0.003539,0.001734,-0.000303,0.006502,0.011435,-0.014373,-0.009788,-0.003673,
812,0.812,-0.008384,0.003926,-0.000976,0.009994,0.013673,-0.005339,-0.015757,-0.006686,
813,0.813,-0.006624,0.003240,0.005955,0.003851,0.023149,-0.002388,-0.025793,-0.004962,
814,0.814,-0.005027,-0.000994,0.005108,0.006333,0.028329,-0.009400,-0.013321,-0.000193,
815,0.815,-0.008502,-0.003886,0.002572,0.005600,0.005335,-0.033805,-0.011668,-0.003210,
816,0.816,-0.009256,-0.005420,0.003244,-0.002248,-0.037675,-0.036718,-0.007152,0.004419,
817,0.817,-0.014230,0.000661,-0.000314,0.000742,-0.067036,-0.033635,-0.000268,-0.000816,
818,0.818,-0.020383,-0.000199,-0.000828,0.005242,-0.072409,-0.030851,0.003395,0.001897,
819,0.819,-0.015878,0.003508,0.002040,0.004331,-0.038697,-0.018489,0.006548,-0.002332,
820,0.820,-0.005621,-0.001405,0.000498,0.006468,0.000982,0.001800,0.007490,0.002916,
821,0.821,-0.001280,0.001623,-0.000696,0.004373,0.038145,0.009859,0.004702,0.000882,
822,0.822,-0.004736,0.002110,-0.001044,0.001252,0.071908,0.007317,0.000371,0.003923,
823,0.823,-0.010056,0.005641,-0.004608,-0.000518,0.085009,0.022665,-0.003441,0.002230,
824,0.824,-0.004559,0.000548,-0.005808,-0.003128,0.080994,0.040835,0.000027,0.003752,
825,0.825,-0.008877,0.004083,-0.001935,-0.002013,0.077300,0.042868,0.004181,-0.001316,
826,0.826,-0.002720,-0.000160,-0.002465,-0.008512,0.060734,0.049134,0.003587,-0.000639,
827,0.827,-0.006210,-0.001881,0.001735,-0.013144,0.033556,0.034588,0.007063,0.002404,
828,0.828,-0.016643,0.002823,-0.005896,-0.017434,0.015403,0.021244,0.012070,0.000712,
829,0.829,-0.005773,0.004489,-0.002865,-0.010559,-0.001052,0.005758,0.009970,-0.000815,
830,0.830,-0.018094,0.002768,-0.002039,-0.009764,-0.021899,0.003512,0.012951,0.000363,
831,0.831,-0.009452,0.001225,0.000485,-0.008966,-0.041037,-0.002241,0.010016,0.003232,
832,0.832,-0.013858,0.000864,0.001153,-0.005288,-0.038694,-0.004106,0.007412,0.008285,
833,0.833,-0.006781,-0.001196,0.003180,-0.001778,-0.032109,-0.005832,0.004321,0.008953,
834,0.834,-0.000399,-0.000897,0.000122,0.002416,-0.017889,0.000873,0.005479,0.007246,
835,0.835,-0.008080,-0.004142,-0.003939,0.001880,-0.008552,0.001806,-0.000292,-0.001569,
836,0.836,-0.006985,-0.004504,-0.004450,0.002362,-0.010223,0.000464,-0.006247,-0.005301,
837,0.837,-0.007768,-0.000312,-0.001408,0.006569,-0.008706,0.009638,-0.011532,-0.010905,
838,0.838,-0.011955,0.007268,-0.001079,0.003676,-0.001803,0.015651,-0.010904,-0.005685,
839,0.839,-0.008211,-0.002234,-0.000743,0.006189,-0.020819,-0.001685,-0.012646,-0.001137,
840,0.840,-0.007539,-0.001084,-0.000409,0.003971,-0.062021,-0.039131,-0.006262,-0.002004,
841,0.841,-0.009253,-0.004339,-0.000081,0.001922,-0.126764,-0.119343,-0.003773,0.001695,
842,0.842,-0.012175,0.000868,-0.000766,0.002246,-0.135508,-0.131021,0.004651,-0.000352,
843,0.843,-0.010710,-0.000018,0.000917,0.001216,-0.096531,-0.100082,0.001398,0.000137,
844,0.844,-0.013818,-0.000905,-0.002817,0.004250,-0.061082,-0.014868,0.004402,0.001808,
845,0.845,-0.011020,-0.003137,-0.002316,0.005257,0.010072,0.019413,0.007065,-0.003956,
846,0.846,-0.008574,-0.005196,0.000715,0.007617,0.038432,0.071249,-0.000775,-0.006165,
847,0.847,-0.004790,-0.002187,0.002731,0.006586,0.081535,0.080440,-0.010295,-0.004149,
848,0.848,-0.009630,-0.006280,0.000865,0.004730,0.089321,0.106026,0.000998,0.000073,
849,0.849,-0.006712,-0.002764,0.001868,0.004082,0.110674,0.113482,-0.003586,0.002934,
850,0.850,-0.002782,-0.003981,0.002196,0.003447,0.104259,0.091841,0.000449,0.004449,
851,0.851,-0.005465,-0.000120,0.004048,0.004849,0.086813,0.046392,0.004164,0.002235,
852,0.852,-0.008651,0.003401,0.001163,0.001848,0.060238,-0.018433,0.005179,-0.000652,
853,0.853,-0.002372,0.002183,0.003686,-0.002830,0.026369,-0.027238,0.006199,-0.000999,
854,0.854,-0.001677,-0.000716,0.001313,-0.001062,-0.004447,-0.019636,0.005339,-0.005578,
855,0.855,0.002394,0.000270,-0.000383,-0.000472,-0.016338,0.001509,0.006169,-0.007280,
856,0.856,-0.003000,-0.002964,-0.001061,0.005361,-0.019945,0.020642,0.003966,-0.003226,
857,0.857,0.001764,-0.000117,0.001307,0.004764,-0.036399,0.014778,-0.000944,0.000312,
858,0.858,0.003308,-0.002673,0.002325,0.004181,-0.069412,-0.054679,-0.000437,-0.000881,
859,0.859,-0.000896,0.002545,0.000466,0.000043,-0.100217,-0.121111,-0.004491,0.000284,
860,0.860,0.002508,0.006250,-0.002918,0.003003,-0.080239,-0.095318,-0.002964,-0.003961,
861,0.861,0.004558,0.004206,0.003174,-0.001654,-0.040129,-0.103158,-0.000751,0.000094,
862,0.862,0.007284,0.001152,0.000638,0.000125,-0.002884,-0.124480,-0.005478,-0.001432,
863,0.863,0.008994,0.005201,-0.000043,-0.001486,0.030981,-0.105188,-0.004969,0.002790,
864,0.864,0.009187,0.001635,0.001991,0.003323,0.044217,-0.064242,-0.000910,0.006857,
865,0.865,0.006020,-0.001414,0.002495,-0.003544,0.056103,0.015758,0.001636,0.007366,
866,0.866,0.007773,0.000609,0.000805,0.002947,0.059685,0.096242,0.005879,0.007715,
867,0.867,0.010034,0.001620,-0.001729,0.000462,0.029903,0.127346,0.005394,0.008917,
868,0.868,0.004869,-0.002939,0.005208,-0.003204,-0.006158,0.117877,0.012193,0.003173,
869,0.869,0.004108,0.002815,-0.000045,0.001766,-0.020541,0.109274,0.014938,0.005722,
870,0.870,0.008267,0.002140,-0.002737,0.004866,-0.007298,0.132661,0.019209,0.002018,
871,0.871,0.007714,0.000110,-0.000193,0.004411,0.004621,0.097214,0.010794,-0.001517,
872,0.872,0.013435,-0.000391,0.000494,0.002938,0.022827,0.065017,0.003054,0.000186,
873,0.873,0.008170,-0.000885,0.001176,0.001796,0.026155,0.047774,-0.004189,-0.006232,
874,0.874,0.008842,-0.002386,0.002869,0.003025,0.029131,0.032127,-0.003321,-0.001995,
875,0.875,0.007162,0.002698,0.006933,-0.001166,0.004495,0.018001,-0.009218,-0.001315,
876,0.876,0.010060,0.006263,0.002207,-0.000622,-0.018474,0.005065,-0.011394,-0.006226,
877,0.877,0.009605,0.000518,-0.000825,-0.000090,-0.003566,-0.014614,-0.009346,-0.002011,
878,0.878,0.010001,0.001212,0.003243,-0.003118,0.004557,-0.010809,-0.009833,-0.000329,
879,0.879,0.007186,-0.003677,-0.002504,-0.003437,0.002170,-0.027014,-0.012690,0.002208,
880,0.880,0.009134,-0.001963,-0.006209,-0.002396,0.004375,-0.024015,-0.004890,0.005242,
881,0.881,0.011584,0.003300,-0.006874,-0.000005,-0.005734,-0.010245,-0.012644,-0.001188,
882,0.882,0.010674,0.003994,0.000077,-0.005056,-0.022431,-0.017482,-0.017867,0.001518,
883,0.883,0.010620,0.000966,-0.004479,-0.004356,-0.037914,-0.028606,-0.013277,0.002355,
884,0.884,0.009059,-0.004259,-0.003617,-0.003824,-0.023621,-0.006059,-0.002095,-0.002895,
885,0.885,0.008531,0.003538,-0.002930,-0.003297,-0.010476,-0.038972,0.005539,0.000654,
886,0.886,0.006304,0.000514,-0.000888,-0.004804,0.001473,-0.069674,0.009629,0.002346,
887,0.887,0.009670,0.000874,-0.003410,-0.000223,0.018290,-0.057851,0.009319,-0.001545,
888,0.888,0.006099,0.001751,-0.001706,0.000126,0.019839,-0.029762,0.005619,-0.003235,
889,0.889,0.007448,0.004326,0.002365,0.000461,0.021196,-0.004225,0.004629,0.000333,
890,0.890,0.005592,0.002160,-0.001179,-0.000550,0.017433,0.018892,-0.000595,-0.001854,
891,0.891,0.001540,0.002864,0.000017,0.001133,0.011766,0.027746,0.002133,-0.000666,
892,0.892,-0.004698,0.003395,0.003921,-0.001259,0.006404,0.030448,0.004699,-0.000313,
893,0.893,-0.005347,-0.001819,0.001401,-0.001114,0.003636,0.023224,0.002544,-0.004877,
894,0.894,-0.004465,-0.005344,0.002593,-0.001821,0.006226,0.025566,0.009002,-0.004365,
895,0.895,-0.004930,-0.001086,0.002935,0.001872,-0.005169,0.015625,0.003120,-0.001476,
896,0.896,-0.006404,-0.000554,-0.002124,-0.005952,-0.030349,-0.000922,0.003834,-0.001979,
897,0.897,-0.000935,0.000999,-0.000077,-0.016317,-0.048231,-0.002924,-0.003924,0.001070,
898,0.898,-0.004262,-0.000150,0.001633,-0.015015,-0.038161,-0.004754,0.001332,-0.000955,
899,0.899,-0.000990,-0.002989,0.002156,-0.013889,-0.022990,-0.028708,-0.001346,0.004804,
900,0.900,-0.003632,-0.000422,-0.001383,-0.003634,-0.009011,-0.058263,-0.002169,0.002270,
901,0.901,-0.002881,0.000619,0.003701,-0.010639,0.008456,-0.054119,-0.002820,0.000083,
902,0.902,-0.009578,-0.001713,-0.002720,-0.019510,0.015205,-0.035749,0.004992,0.005000,
903,0.903,-0.010358,0.000182,-0.000171,-0.016376,0.029492,-0.019106,0.004007,0.001959,
904,0.904,-0.014675,-0.000466,-0.003890,-0.011219,0.023920,-0.010051,-0.000523,-0.003278,
905,0.905,-0.016963,0.000741,0.001021,-0.002848,0.015409,-0.017971,-0.003027,-0.001244,
906,0.906,-0.009774,-0.001266,-0.002023,-0.008513,0.007766,-0.015469,-0.003682,-0.002925,
907,0.907,-0.008691,0.002644,-0.001509,-0.005552,-0.001825,0.004879,-0.008569,0.004707,
908,0.908,-0.007615,-0.003767,0.000019,0.002819,-0.013018,0.002124,-0.008047,0.001684,
909,0.909,-0.005188,-0.002905,-0.000316,0.008317,-0.008304,0.004317,-0.010907,-0.002866,
910,0.910,-0.007002,-0.002197,-0.001495,0.005181,-0.004121,-0.002528,-0.003117,-0.002001,
911,0.911,-0.002566,0.001383,0.002057,0.009663,-0.005219,0.003380,0.002473,0.000213,
912,0.912,0.000507,0.001913,0.000877,0.008721,-0.006188,0.012588,0.003491,-0.006203,
913,0.913,-0.007081,-0.005695,0.003748,0.010830,-0.007224,0.027751,0.008057,0.001596,
914,0.914,-0.010116,-0.002640,-0.001333,0.011419,-0.009977,0.033878,0.007222,-0.005667,
915,0.915,-0.002673,-0.003479,-0.002018,0.011841,-0.002296,0.028495,0.005038,-0.004812,
916,0.916,-0.007086,-0.006015,-0.001517,0.008875,0.004853,0.020287,0.003015,-0.000573,
917,0.917,-0.004406,-0.000764,0.004905,0.004059,0.000127,0.016021,-0.000026,-0.001245,
918,0.918,-0.000558,0.002790,-0.007965,0.007025,-0.002610,0.017667,-0.000532,-0.006151,
919,0.919,-0.002482,0.001093,-0.002391,0.007452,0.004079,0.009118,-0.002046,-0.001930,
920,0.920,-0.001879,-0.000596,-0.004100,0.004848,0.002990,-0.007819,-0.003231,0.000946,
921,0.921,-0.002293,-0.004151,0.000450,0.005122,0.005319,-0.044964,0.001512,0.002461,
922,0.922,-0.006947,-0.005343,0.001791,0.001162,0.005808,-0.071601,0.004541,0.002791,
923,0.923,-0.005180,0.000238,0.000591,0.002617,0.012058,-0.047594,0.005022,0.005663,
924,0.924,-0.004629,0.000913,-0.000432,0.002891,0.011043,-0.043449,0.006527,0.006666,
925,0.925,-0.011364,0.002943,-0.001463,0.005710,-0.000602,-0.047642,0.006865,0.011901,
926,0.926,-0.006787,-0.003988,0.004963,0.006666,-0.009190,-0.029902,0.004851,0.008169,
927,0.927,-0.004246,0.000581,0.002408,0.002038,-0.004745,-0.000516,0.005885,0.000370,
928,0.928,-0.004924,-0.001964,-0.002853,0.002493,-0.025650,0.043089,0.001996,0.005609,
929,0.929,0.001492,0.000231,0.002035,0.002952,-0.046555,0.072016,-0.004769,-0.000824,
930,0.930,0.000625,0.000894,0.000321,0.001387,-0.043969,0.076911,-0.003924,0.000021,
931,0.931,-0.000081,0.001397,0.003168,0.001688,-0.041735,0.062215,-0.006444,0.006960,
932,0.932,0.001901,-0.000303,0.000606,-0.000369,-0.021586,0.048725,-0.004240,0.002390,
933,0.933,0.000162,0.003247,0.001775,0.002144,-0.024441,0.028471,-0.006257,-0.001838,
934,0.934,0.006513,-0.000999,-0.001116,0.000435,-0.002236,0.017365,-0.013174,-0.008775,
935,0.935,0.005591,-0.000509,-0.003001,-0.001951,0.024752,-0.025815,-0.012300,-0.007939,
936,0.936,0.010736,-0.002044,0.001559,-0.001787,0.050069,-0.031783,-0.006343,-0.008796,
937,0.937,0.004199,-0.002400,0.002057,0.001593,0.059843,-0.016135,-0.004112,-0.011001,
938,0.938,0.004927,-0.003600,0.003735,-0.005332,0.068601,0.007812,0.000817,-0.003225,
939,0.939,0.007008,0.002134,0.000170,-0.002274,0.065836,0.020806,0.005050,0.002011,
940,0.940,0.001974,0.002957,-0.000184,0.002319,0.053404,0.024514,0.002170,-0.002567,
941,0.941,0.000143,0.002263,-0.004094,-0.000194,0.024037,-0.000974,-0.003612,0.003332,
942,0.942,-0.000509,0.002918,0.003673,-0.000844,-0.012110,-0.024035,0.003272,0.002637,
943,0.943,-0.002164,0.001201,0.002647,-0.002845,-0.016974,-0.009193,-0.001351,-0.002288,
944,0.944,-0.000098,0.002862,-0.004640,0.002944,-0.030286,0.009871,-0.000577,0.000736,
945,0.945,-0.000569,-0.001911,-0.003810,0.002304,-0.034286,0.022169,0.003073,0.000222,
946,0.946,0.001840,-0.001426,-0.002979,0.000325,-0.045220,0.001800,0.005033,0.001732,
947,0.947,-0.000662,-0.004330,-0.002328,0.000882,-0.068338,-0.028401,0.000735,0.002903,
948,0.948,-0.001797,0.003428,-0.001676,0.000419,-0.059653,-0.032404,0.001163,0.004929,
949,0.949,-0.005641,0.004417,0.001349,0.000970,-0.035026,-0.079890,0.001603,-0.000830,
950,0.950,-0.004225,-0.000854,0.001832,0.002212,-0.018661,-0.112354,-0.000649,-0.001679,
951,0.951,-0.003159,0.001832,-0.002924,0.001949,0.002141,-0.106772,-0.001875,0.000511,
952,0.952,-0.009687,0.002660,0.002808,0.001003,0.015854,-0.101677,-0.006124,-0.001525,
953,0.953,-0.008939,0.003311,-0.000934,0.001416,0.033125,-0.038686,-0.004435,-0.001021,
954,0.954,-0.009875,0.002616,-0.000274,-0.002221,0.008455,0.021624,0.002341,-0.005091,
955,0.955,-0.004725,0.002086,-0.003337,0.000073,-0.041074,0.076205,0.001509,-0.006619,
956,0.956,0.000102,0.003766,-0.001660,0.000511,-0.090778,0.111695,0.000675,-0.004423,
957,0.957,-0.001647,0.001215,-0.000154,-0.002947,-0.084324,0.130981,-0.000001,-0.002390,
958,0.958,0.000004,-0.005730,-0.003211,-0.001657,-0.055030,0.125307,0.002024,-0.002048,
959,0.959,0.002507,-0.002701,-0.000343,-0.002726,0.003698,0.088231,0.003710,-0.001038,
960,0.960,0.003665,-0.001864,-0.000698,0.000942,0.058379,0.025299,0.006579,0.002681,
961,0.961,0.001608,0.005908,0.002505,-0.001154,0.108177,-0.000431,0.005060,-0.001550,
962,0.962,0.004133,0.002860,0.002838,-0.003075,0.114664,-0.039392,-0.001869,0.003701,
963,0.963,0.003126,0.000152,0.003848,-0.000423,0.120500,-0.103416,-0.002877,0.005734,
964,0.964,0.003469,0.000991,0.001473,0.000043,0.104691,-0.077459,0.003569,0.002698,
965,0.965,0.004154,-0.002740,-0.000224,-0.002202,0.090412,-0.069644,0.006127,0.004388,
966,0.966,0.008060,0.000819,0.002301,-0.002759,0.068532,-0.062524,0.003937,0.004899,
967,0.967,0.008596,0.001329,0.001955,-0.001466,0.056817,-0.056087,0.000391,0.004562,
968,0.968,0.007124,-0.001543,0.002972,-0.005080,0.031557,-0.015128,0.004625,-0.001019,
969,0.969,0.002109,-0.000014,0.001607,-0.002433,0.008667,0.022150,-0.001796,0.001182,
970,0.970,0.001499,0.001182,-0.000763,0.001914,-0.006088,0.065906,0.004134,-0.000840,
971,0.971,0.001071,-0.003550,0.000925,0.001539,-0.008637,0.083437,0.004828,-0.002519,
972,0.972,0.009944,-0.004051,-0.003297,0.000141,-0.020802,0.088747,-0.005819,0.000372,
973,0.973,0.008853,-0.005734,0.002460,-0.000935,-0.040909,0.084061,-0.013425,0.000901,
974,0.974,0.012161,-0.005216,-0.005996,0.000356,-0.059797,0.088538,-0.023054,0.002106,
975,0.975,0.009215,-0.002157,0.001785,0.004683,-0.066793,0.076786,-0.019324,0.004155,
976,0.976,0.002893,-0.000115,-0.001259,0.001906,-0.059823,0.044080,-0.002236,-0.001575,
977,0.977,0.002152,-0.002647,0.001453,0.000473,-0.045193,0.013451,0.000128,-0.000711,
978,0.978,0.000067,0.000586,0.000617,0.000222,-0.024328,0.009749,0.002319,-0.001376,
979,0.979,-0.000491,-0.003290,0.002822,0.001488,-0.010303,-0.008132,-0.003774,-0.003388,
980,0.980,0.006575,0.001463,0.000795,-0.000979,-0.002761,-0.011107,0.001812,-0.002874,
981,0.981,-0.001744,-0.002742,-0.000888,-0.001254,-0.009131,-0.013726,-0.003249,-0.003371,
982,0.982,0.010899,0.003706,-0.002578,-0.000851,-0.023161,-0.021583,-0.001715,-0.000826,
983,0.983,0.002570,0.001181,0.004196,0.003430,-0.032311,-0.043656,-0.000343,0.001380,
984,0.984,0.010312,0.001883,-0.006115,-0.000744,-0.027120,-0.046295,-0.001491,0.004257,
985,0.985,0.009099,0.002577,-0.002049,0.000997,-0.025488,-0.021379,0.001762,0.000701,
986,0.986,0.010409,0.000901,-0.000857,-0.001499,-0.010166,-0.004812,0.004852,-0.001490,
987,0.987,0.002766,0.001422,0.000165,0.000749,0.004156,-0.007554,0.011333,-0.000306,
988,0.988,0.006448,0.005326,0.004236,-0.004438,0.017620,-0.000132,0.012563,0.003416,
989,0.989,0.007588,-0.000410,0.003228,0.000353,0.023298,-0.030031,0.022094,0.008499,
990,0.990,0.004988,0.001810,0.000526,0.002098,0.025049,-0.057712,0.030948,0.004961,
991,0.991,-0.007757,0.003855,-0.000319,0.001631,0.026594,-0.053964,0.027790,0.005483,
992,0.992,-0.005794,0.003364,-0.000989,0.000139,0.016903,-0.044040,0.028858,0.002627,
993,0.993,-0.004019,0.005063,0.001063,0.002369,0.013096,-0.035211,0.024352,-0.005131,
994,0.994,-0.005461,-0.001691,0.000571,-0.001486,0.007438,-0.021491,0.013241,0.000473,
995,0.995,-0.001332,0.002889,0.003462,-0.001965,0.002112,-0.009129,0.008731,0.001507,
996,0.996,-0.004988,0.000355,0.003987,0.000257,0.002855,0.011188,0.007438,-0.003054,
997,0.997,-0.003919,0.001036,0.000960,0.006688,-0.005059,0.019294,0.001232,-0.002199,
998,0.998,-0.009105,0.000368,0.003853,0.002126,-0.004218,0.031598,-0.011236,-0.001512,
999,0.999,-0.000603,-0.001314,-0.001876,-0.000411,-0.012819,0.033765,-0.016261,0.000532,
1000,1.000,-0.008347,-0.001812,0.000684,0.001780,-0.007322,0.031717,-0.026871,-0.002506,
1001,1.001,-0.009328,0.001741,-0.001487,-0.001788,-0.004314,0.022509,-0.028177,-0.001989,
1002,1.002,-0.008459,-0.001293,-0.002143,-0.002309,-0.003474,0.021088,-0.031863,0.000544,
1003,1.003,-0.002532,0.001588,-0.002626,-0.001829,-0.011265,0.013648,-0.030810,-0.004534,
1004,1.004,-0.007783,-0.004164,-0.000916,0.001692,-0.008244,-0.001438,-0.023501,-0.003856,
1005,1.005,-0.009833,-0.003316,-0.000388,0.002834,-0.005605,-0.015577,-0.011279,-0.006894,
1006,1.006,-0.014084,-0.002643,-0.002570,-0.001944,-0.006546,-0.043482,-0.006166,-0.001647,
1007,1.007,-0.010052,-0.000615,-0.002887,-0.002496,-0.004479,-0.071383,-0.001563,0.001913,
1008,1.008,-0.007554,-0.003660,0.002886,-0.000854,-0.002580,-0.067832,-0.000181,-0.002300,
1009,1.009,-0.002533,-0.000791,-0.001331,0.003828,-0.008423,-0.044885,0.001032,-0.000590,
1010,1.010,-0.004637,-0.002321,-0.002000,0.000723,0.000020,-0.005945,0.002084,-0.004130,
1011,1.011,-0.011642,-0.001983,-0.002660,-0.005762,-0.010304,0.020440,0.003132,-0.002937,
1012,1.012,-0.007156,-0.001641,0.000398,-0.013604,-0.008913,0.034663,-0.001423,-0.001744,
1013,1.013,-0.004716,0.002588,-0.002469,-0.010615,-0.007705,0.056461,-0.003945,0.001825,
1014,1.014,0.000414,-0.006213,0.002284,-0.007945,-0.004531,0.052332,0.003002,0.000655,
1015,1.015,-0.006139,-0.002494,0.000599,-0.003762,-0.005638,0.041321,0.003850,0.004564,
1016,1.016,-0.012202,0.000713,-0.002276,-0.006016,0.002694,0.024776,0.003010,0.004070,
1017,1.017,-0.010144,0.001728,0.000264,-0.005387,0.003615,-0.002379,0.002342,0.001046,
1018,1.018,-0.009619,-0.002844,-0.000923,-0.011171,0.000497,-0.035201,0.001667,-0.000130,
1019,1.019,-0.011476,0.001378,0.000258,-0.019662,-0.013648,-0.030779,-0.002555,-0.000464,
1020,1.020,-0.004045,-0.000826,-0.003297,-0.011914,-0.024007,-0.010797,0.006240,-0.001472,
1021,1.021,-0.011513,-0.001512,-0.000255,-0.002474,-0.022434,0.000099,0.009962,-0.005192,
1022,1.022,-0.005275,0.001517,0.000926,-0.001329,-0.034609,0.009932,0.004378,-0.002150,
1023,1.023,-0.002937,-0.000198,0.002771,0.004221,-0.058007,0.012790,0.007401,-0.001820,
1024,1.024,-0.006863,0.002319,0.001069,0.003190,-0.108007,0.004593,0.010073,-0.000812,
1025,1.025,0.002238,0.001960,0.001387,0.007746,-0.115547,-0.007909,0.010889,-0.001828,
1026,1.026,0.000836,-0.002783,-0.002858,0.003498,-0.070763,-0.005957,0.011542,-0.002169,
1027,1.027,-0.000405,-0.001108,-0.002371,0.005667,-0.018145,-0.004237,0.005109,-0.002353,
1028,1.028,-0.001650,-0.000613,0.002859,0.010533,0.017079,-0.010168,-0.002689,0.001528,
1029,1.029,-0.006450,-0.004179,-0.002066,0.009986,0.049133,-0.029154,-0.005757,-0.000179,
1030,1.030,0.004480,-0.001145,0.004846,0.007075,0.078200,-0.046815,-0.003069,0.005567,
1031,1.031,0.002720,0.002731,-0.001607,0.010586,0.093957,-0.049401,-0.003931,0.001837,
1032,1.032,0.001122,-0.003040,-0.000794,0.006304,0.098567,-0.043632,-0.012408,0.003857,
1033,1.033,-0.002841,-0.000856,-0.000142,0.005740,0.094028,-0.030848,-0.013452,0.003340,
1034,1.034,0.004700,0.001152,-0.002193,0.007213,0.089999,-0.009097,-0.010437,-0.001912,
1035,1.035,-0.002810,0.001642,0.002004,0.000218,0.064484,0.011562,-0.007763,0.004514,
1036,1.036,-0.002198,0.002126,-0.000894,-0.005080,0.047934,0.014291,-0.000015,0.003651,
1037,1.037,0.000109,-0.000437,0.002641,-0.007832,0.027010,-0.012892,-0.003099,0.004311,
1038,1.038,0.009859,-0.000123,0.001435,-0.005340,0.024247,-0.016462,-0.000431,0.002264,
1039,1.039,-0.000012,0.002731,0.003453,0.004586,0.017005,0.006452,-0.001318,-0.000798,
1040,1.040,0.003487,0.000844,-0.002317,0.005890,0.028219,0.039257,-0.002042,-0.001321,
1041,1.041,0.011053,0.005389,-0.006565,0.002120,0.018156,0.069816,-0.002765,-0.003885,
1042,1.042,0.007783,-0.000384,-0.002868,-0.003511,0.001497,0.073468,0.000215,-0.005093,
1043,1.043,0.012131,0.000270,-0.004924,0.001678,-0.005050,0.069690,-0.001548,-0.001219,
1044,1.044,0.007700,0.002278,-0.004437,0.002470,0.005115,0.053043,-0.001115,0.006545,
1045,1.045,0.011226,0.001740,-0.002771,0.010192,0.014406,0.044054,0.003868,0.003305,
1046,1.046,0.001738,-0.002344,-0.000252,0.004888,0.026204,0.035822,0.001735,0.002270,
1047,1.047,0.005278,0.001188,-0.003322,0.003985,0.009237,0.018504,0.001128,-0.000461,
1048,1.048,0.001902,-0.000022,-0.000471,0.006467,-0.015527,-0.015222,0.002721,0.000371,
1049,1.049,0.000746,0.001988,-0.004044,0.007089,-0.038591,-0.088007,0.000094,-0.001838,
1050,1.050,0.003339,-0.003781,-0.001019,0.002143,-0.047443,-0.160969,0.006958,0.007451,
1051,1.051,0.005767,0.000425,-0.000694,0.006354,-0.039350,-0.056642,0.001634,0.003710,
1052,1.052,0.009391,0.002613,0.001835,0.005817,-0.026976,0.012837,0.004276,0.000475,
1053,1.053,0.009977,-0.000954,0.000136,0.006298,-0.020308,0.075898,0.001669,-0.004792,
1054,1.054,0.008210,0.002072,0.000472,0.004072,-0.030370,0.110376,0.002287,-0.002113,
1055,1.055,0.006443,0.000357,-0.000208,0.002864,-0.024670,0.079243,0.001560,-0.002988,
1056,1.056,0.004857,-0.003207,-0.000047,0.000980,-0.009300,0.050831,0.003218,-0.006733,
1057,1.057,0.007004,-0.002040,0.003668,0.003316,-0.011187,0.042205,0.002685,-0.006072,
1058,1.058,0.012540,0.000823,0.007217,0.002953,-0.027784,0.034432,-0.004097,-0.001848,
1059,1.059,0.000999,-0.003422,0.000284,0.000394,-0.012066,-0.001066,-0.001407,0.002206,
1060,1.060,-0.000709,-0.001745,0.003333,-0.000644,-0.030360,-0.033329,0.008050,-0.001349,
1061,1.061,0.003851,-0.002262,0.004186,-0.005744,-0.037489,-0.027492,-0.000765,-0.003552,
1062,1.062,0.005207,-0.001080,-0.001728,-0.016427,-0.012654,-0.022169,0.000236,-0.001527,
1063,1.063,0.004036,-0.001428,0.002008,-0.008848,-0.009304,-0.026821,0.007495,-0.006608,
1064,1.064,0.007279,-0.001094,0.004052,-0.004815,-0.012044,-0.039938,0.002920,-0.003058,
1065,1.065,0.000041,-0.003475,0.002372,-0.008552,-0.053023,-0.051749,-0.003007,-0.007288,
1066,1.066,-0.000761,-0.000430,0.004077,-0.016344,-0.070314,-0.084540,-0.002332,0.000330,
1067,1.067,0.000137,-0.000084,0.002570,-0.015343,-0.054273,-0.062507,-0.004358,-0.000681,
1068,1.068,0.000879,-0.001095,0.000399,-0.010793,0.008962,-0.034560,-0.003841,-0.001532,
1069,1.069,0.002984,0.001959,-0.001606,-0.006582,0.052237,-0.045371,-0.002149,0.001008,
1070,1.070,-0.005218,0.002979,-0.000570,-0.002881,0.075725,-0.015540,-0.002649,0.003215,
1071,1.071,0.000469,0.007549,0.004693,-0.007800,0.097193,-0.003560,0.003457,0.006773,
1072,1.072,-0.002474,0.003331,0.002511,-0.016093,0.103786,0.014691,0.006020,0.005081,
1073,1.073,-0.006925,0.003846,0.003208,-0.015083,0.086533,0.044610,-0.000894,-0.000157,
1074,1.074,-0.002582,-0.003921,0.003740,-0.005612,0.049497,0.072644,-0.000028,0.001879,
1075,1.075,-0.004664,0.003884,0.003253,0.000640,0.025477,0.069229,-0.002542,0.004937,
1076,1.076,-0.003871,-0.001332,-0.000276,0.006223,0.021269,0.059566,0.004427,0.002075,
1077,1.077,-0.005434,0.001393,0.001942,0.005195,0.009668,0.062585,0.007172,0.003617,
1078,1.078,-0.003618,-0.002808,0.003995,0.002486,-0.015414,0.060007,-0.002272,-0.003305,
1079,1.079,0.000063,0.002464,0.001483,0.005024,-0.038087,0.037801,-0.001073,-0.000240,
1080,1.080,-0.000141,0.001823,0.005391,0.011950,-0.040604,-0.007087,-0.004277,0.000625,
1081,1.081,0.002868,0.002363,-0.002361,0.012787,-0.026538,-0.052151,0.003007,0.001497,
1082,1.082,-0.002748,0.002917,-0.001322,0.008551,-0.018898,-0.046268,0.002167,0.000849,
1083,1.083,-0.001774,0.000418,-0.000281,0.010739,-0.003012,-0.083297,0.001330,-0.001144,
1084,1.084,-0.003842,0.002665,-0.002968,0.007180,0.007406,-0.146193,0.002015,0.004644,
1085,1.085,-0.004391,0.002373,-0.005489,0.000241,0.005797,-0.120085,0.004067,0.002469,
1086,1.086,-0.005949,0.001408,-0.001745,0.001080,-0.019344,-0.049310,0.004589,0.003178,
1087,1.087,-0.002945,0.000449,-0.005270,0.005293,-0.059254,0.017236,0.001727,0.003713,
1088,1.088,-0.003324,-0.000510,-0.002197,0.004600,-0.053883,0.060593,0.006459,0.003227,
1089,1.089,-0.005719,-0.002146,-0.002848,0.003911,-0.063789,0.075916,0.004092,0.006298,
1090,1.090,-0.001364,-0.000733,0.000050,0.003238,-0.049375,0.083990,0.007132,0.002767,
1091,1.091,0.001647,-0.001356,0.001588,0.006286,-0.018566,0.077178,0.005431,-0.004145,
1092,1.092,-0.002945,-0.001125,-0.001440,0.005775,0.009323,0.083874,-0.001334,-0.007163,
1093,1.093,-0.001126,0.001293,0.001451,0.006271,0.027385,0.054831,0.001383,0.003189,
1094,1.094,-0.000490,-0.000348,-0.001075,0.005929,0.043746,0.006955,0.003940,-0.000831,
1095,1.095,0.002165,-0.004018,0.002834,0.004748,0.046586,-0.012229,0.000237,0.000410,
1096,1.096,-0.003803,0.000764,0.000310,0.006629,0.049274,-0.006395,-0.003278,-0.005127,
1097,1.097,-0.011479,-0.002235,-0.000852,0.001413,0.041988,-0.011538,-0.012709,-0.006101,
1098,1.098,-0.014420,-0.003870,-0.003719,-0.008536,0.035361,-0.006630,-0.019606,0.000366,
1099,1.099,-0.011607,0.000919,-0.004723,-0.018152,0.021115,-0.010908,-0.010764,0.001253,
1100,1.100,-0.008966,-0.003244,-0.007080,-0.009330,-0.006827,-0.014778,-0.011727,0.003490,
1101,1.101,-0.003629,-0.001493,-0.006050,-0.008295,-0.026776,-0.018372,-0.002191,0.005564,
1102,1.102,-0.001497,0.003302,-0.006718,-0.005231,-0.030272,-0.021545,-0.000950,0.005098,
1103,1.103,0.002829,0.003870,-0.002818,-0.002512,-0.033359,-0.036317,0.004681,0.006831,
1104,1.104,0.002428,-0.002507,0.002427,-0.001653,-0.036108,-0.038857,0.003713,0.001108,
1105,1.105,0.001000,0.003466,0.000402,0.002078,-0.022298,-0.031430,0.002908,0.000458,
1106,1.106,0.007169,0.002844,-0.000110,-0.001464,-0.014957,-0.029070,0.000406,-0.004423,
1107,1.107,0.009782,0.003563,0.000395,-0.000950,-0.008341,-0.014709,0.002647,-0.004906,
1108,1.108,0.004607,0.004109,-0.002141,0.003124,0.001804,0.002137,0.003368,-0.004370,
1109,1.109,0.002646,0.001274,-0.002479,0.002623,0.011080,0.008811,0.005092,-0.003833,
1110,1.110,-0.000334,-0.002243,-0.001293,0.000439,0.012751,0.027302,0.002244,-0.000760,
1111,1.111,0.002615,0.003887,-0.002307,0.003328,0.017285,0.024962,0.000748,0.001292,
1112,1.112,0.000149,0.003074,-0.001968,0.002996,0.018664,0.031575,-0.004306,0.001653,
1113,1.113,0.003261,0.003788,0.003099,-0.000892,0.025024,0.045759,0.000620,-0.000704,
1114,1.114,0.000458,-0.001084,0.001055,-0.000372,0.019528,0.028997,-0.001050,-0.002390,
1115,1.115,-0.002011,-0.002747,-0.000643,0.001838,0.018578,0.004241,-0.005097,-0.001025,
1116,1.116,-0.002296,0.001339,-0.005895,0.005748,0.017731,-0.005648,-0.006603,0.002884,
1117,1.117,-0.001896,-0.004384,-0.002350,0.003225,0.011781,-0.002864,0.000351,-0.002334,
1118,1.118,-0.003702,0.002575,0.001872,0.002059,0.000247,-0.016658,-0.004875,-0.004344,
1119,1.119,-0.004844,0.003442,0.002359,0.004112,-0.008217,-0.043983,-0.004005,-0.002635,
1120,1.120,-0.001588,-0.002462,0.004877,0.003124,-0.009754,-0.033254,-0.006522,0.001438,
1121,1.121,-0.001894,0.002796,0.003673,0.004163,-0.013859,-0.016882,-0.005820,-0.000067,
1122,1.122,0.003913,-0.002096,0.001626,0.003853,-0.022730,0.003981,-0.002237,0.001130,
1123,1.123,0.003107,-0.005142,0.003471,0.003706,-0.026012,-0.009610,-0.001696,-0.001744,
1124,1.124,0.010085,-0.006831,0.001085,-0.000156,-0.020835,-0.016779,-0.006924,-0.002083,
1125,1.125,0.001672,-0.001090,0.001408,0.003938,-0.010644,-0.005527,-0.008933,-0.003783,
1126,1.126,0.004931,-0.004822,0.000714,-0.002795,-0.009443,0.008698,-0.004690,0.000607,
1127,1.127,0.001920,-0.002811,0.001366,-0.003603,-0.018383,0.010532,0.002954,0.000083,
1128,1.128,-0.002605,-0.007061,0.004054,0.000659,-0.024110,0.012213,0.006027,-0.000436,
1129,1.129,0.005219,-0.000660,-0.001210,-0.003035,-0.023287,0.013730,0.008746,-0.000798,
1130,1.130,0.002219,-0.006599,-0.000553,-0.003684,-0.031970,0.001159,0.011294,-0.004710,
1131,1.131,0.004966,-0.002904,-0.001249,-0.003148,-0.017329,-0.020965,0.006048,-0.007266,
1132,1.132,0.000778,-0.004964,0.002952,-0.007189,-0.003369,-0.012363,0.008091,-0.006096,
1133,1.133,0.006044,-0.001956,0.003431,-0.007681,-0.012931,-0.009826,0.002353,0.000309,
1134,1.134,-0.003236,-0.002503,0.001883,-0.007337,-0.028414,-0.002728,0.010819,-0.000557,
1135,1.135,0.000503,-0.005075,-0.004232,-0.002595,-0.010243,-0.005084,0.014037,0.001958,
1136,1.136,0.001546,-0.004781,-0.001718,-0.000910,0.006737,-0.011285,0.021311,0.005660,
1137,1.137,-0.003672,-0.002800,-0.001063,-0.000405,0.031143,-0.039295,0.014884,0.000733,
1138,1.138,-0.000936,-0.002512,0.000939,-0.003966,0.040643,-0.035467,0.015720,0.002391,
1139,1.139,-0.005138,0.000650,0.001431,-0.002792,0.043245,-0.017305,0.015022,0.000664,
1140,1.140,-0.008830,-0.001434,-0.001471,0.000070,0.051106,0.005839,0.004344,-0.001913,
1141,1.141,-0.001020,0.002740,0.002071,0.002593,0.038535,0.020827,-0.000242,-0.004165,
1142,1.142,-0.002000,0.003191,0.003244,0.001565,0.031759,0.034564,-0.007202,-0.004558,
1143,1.143,-0.001120,0.002635,-0.001508,-0.002850,0.021473,0.046873,-0.006042,-0.009684,
1144,1.144,-0.003627,0.005619,0.002704,-0.008103,0.008364,0.035583,-0.013859,-0.003304,
1145,1.145,-0.001400,0.002684,-0.002553,-0.014545,0.003308,0.004789,-0.016945,-0.000816,
1146,1.146,0.000664,-0.002445,0.003868,-0.013713,-0.001232,-0.052767,-0.012430,-0.000196,
1147,1.147,-0.005064,-0.000471,0.003002,-0.006792,-0.010878,-0.029641,-0.013330,-0.000934,
1148,1.148,-0.004362,-0.007461,-0.000731,-0.004112,-0.022280,0.005643,-0.017118,0.000691,
1149,1.149,0.002087,-0.004810,-0.001424,-0.001605,-0.042394,0.024702,-0.017867,0.001145,
1150,1.150,-0.003806,-0.000637,0.001604,0.002076,-0.050701,0.041922,-0.013694,-0.000432,
1151,1.151,-0.001571,-0.001371,0.001085,0.005601,-0.073239,0.025831,-0.006125,-0.002682,
1152,1.152,-0.009312,0.002124,0.003613,0.005072,-0.052611,0.011270,-0.005142,0.003702,
1153,1.153,-0.004028,0.002585,-0.000627,0.005565,-0.033640,0.015486,-0.000605,0.006356,
1154,1.154,0.002435,-0.001519,0.003435,0.004038,0.003471,-0.028680,0.001906,0.005456,
1155,1.155,0.001616,0.004172,0.000900,0.005232,0.040584,-0.046265,-0.001853,0.003203,
1156,1.156,0.003847,0.006331,-0.001293,0.002386,0.045230,-0.019867,-0.003914,0.001115,
1157,1.157,0.003199,0.004247,-0.000955,0.006644,0.040721,-0.015271,0.000299,0.002752,
1158,1.158,-0.002519,0.003676,-0.006705,0.000245,0.036703,-0.019774,0.005534,0.004390,
1159,1.159,-0.009444,0.000744,-0.004179,0.001120,0.025757,-0.015948,0.009081,0.003842,
1160,1.160,-0.004880,0.003226,-0.004886,0.004871,-0.017293,0.002128,0.004838,0.001593,
1161,1.161,-0.002343,0.000123,-0.002884,0.002880,-0.046646,0.031928,0.005324,0.007974,
1162,1.162,-0.007583,0.000408,0.002846,0.003443,-0.030837,0.020128,0.005809,0.007082,
1163,1.163,-0.002690,0.002221,-0.002417,0.007567,-0.016551,0.038318,0.006122,0.002808,
1164,1.164,0.001526,0.001157,-0.003105,0.000857,0.005352,0.041672,-0.000327,-0.004167,
1165,1.165,-0.004916,0.000087,-0.003628,0.001759,0.017105,0.032974,-0.001192,-0.005055,
1166,1.166,0.000985,0.001389,-0.004158,0.002651,0.027830,0.046707,-0.002049,-0.002557,
1167,1.167,0.007897,-0.000344,0.002584,0.003375,0.037540,0.053957,-0.004254,-0.001910,
1168,1.168,0.007024,0.002821,-0.000138,0.004099,0.046245,0.042732,-0.000691,0.000087,
1169,1.169,0.006154,0.001599,0.000699,0.007189,0.048861,0.012029,-0.003720,-0.002985,
1170,1.170,-0.005378,0.001227,0.001360,0.000803,0.046426,-0.045433,-0.003196,-0.000132,
1171,1.171,0.003064,0.005084,-0.002212,0.001690,0.012713,-0.068866,-0.004705,0.002387,
1172,1.172,-0.001529,-0.000692,-0.000531,-0.000465,-0.021136,-0.047622,0.002244,-0.000674,
1173,1.173,-0.000199,0.001478,-0.002237,0.001596,-0.016753,-0.028373,-0.000789,0.003203,
1174,1.174,-0.001406,0.003481,-0.001744,0.004674,-0.020623,0.000872,0.001931,0.001667,
1175,1.175,0.006358,0.002955,0.001277,0.001811,-0.031389,0.006114,-0.005840,0.002841,
1176,1.176,-0.000945,0.003455,-0.001611,0.001321,-0.034514,-0.018050,-0.002784,-0.001903,
1177,1.177,-0.000125,0.001921,0.000239,0.000991,-0.013614,-0.031211,0.001791,0.001139,
1178,1.178,0.000699,-0.002309,-0.001466,-0.000183,0.000169,-0.019335,0.002644,-0.000554,
1179,1.179,0.001345,0.000562,0.000218,0.000839,0.017513,0.006072,0.007900,-0.003086,
1180,1.180,0.001994,0.000070,0.001570,0.003214,0.028810,0.022497,0.001485,-0.006130,
1181,1.181,0.008893,0.003124,0.002237,-0.001176,0.035048,0.013718,-0.001033,-0.001394,
1182,1.182,0.006162,0.000270,0.001554,0.004082,0.037076,0.005608,0.001174,-0.004432,
1183,1.183,0.006990,-0.003254,0.000195,-0.000816,0.038951,-0.021589,0.003215,-0.001546,
1184,1.184,-0.001484,0.001004,-0.001162,0.000880,0.031522,-0.010711,0.004911,-0.005080,
1185,1.185,-0.000501,0.001543,0.001547,-0.001983,0.022051,0.032317,0.002046,-0.003876,
1186,1.186,-0.001521,0.000051,0.003414,0.002761,0.013453,0.038114,0.005615,0.002570,
1187,1.187,-0.000722,-0.000255,-0.001824,0.001075,-0.001217,-0.031182,0.012571,0.001750,
1188,1.188,-0.003347,-0.001407,0.005110,0.001587,-0.007091,-0.078465,0.007337,0.004312,
1189,1.189,-0.001152,-0.000354,-0.003333,0.000066,-0.012483,-0.052431,0.004646,0.008062,
1190,1.190,-0.003728,-0.000647,-0.000952,-0.000784,-0.016709,-0.021114,0.003980,0.004194,
1191,1.191,-0.005762,-0.005170,0.000077,0.000395,-0.024994,0.018166,-0.000246,-0.000686,
1192,1.192,-0.002716,0.003168,0.003140,-0.006041,-0.047838,0.039671,0.006695,0.003560,
1193,1.193,-0.001029,0.000004,-0.001405,-0.003344,-0.097253,0.033431,0.009406,0.000700,
1194,1.194,-0.004573,-0.005184,-0.002229,-0.004210,-0.090029,0.039345,0.011959,0.005455,
1195,1.195,-0.001524,-0.000562,0.004728,-0.002040,-0.057623,0.044754,0.008248,0.003781,
1196,1.196,-0.005396,-0.003043,-0.001681,0.001479,-0.016605,0.049678,0.010288,0.006676,
1197,1.197,-0.002840,-0.002319,0.000882,-0.000242,0.031519,0.036693,0.009808,0.000948,
1198,1.198,-0.003166,0.001290,0.001582,0.002606,0.038039,0.017032,0.004584,0.001635,
1199,1.199,-0.005161,-0.000354,-0.001943,0.002069,0.032420,0.006542,-0.003189,-0.000379,
1200,1.200,-0.004781,0.001395,-0.001408,-0.000156,0.006000,0.003621,-0.004192,-0.004588,
1201,1.201,-0.003052,-0.003282,0.001498,-0.001357,-0.008207,0.006675,-0.005016,0.000675,
1202,1.202,0.002056,-0.003720,-0.004223,-0.004928,-0.021214,0.004020,-0.004142,0.001365,
1203,1.203,0.004119,0.003964,-0.000474,-0.011894,-0.009191,-0.003239,0.001132,-0.002832,
1204,1.204,-0.001573,-0.005444,-0.004003,-0.019207,0.001796,0.007893,-0.005265,0.000068,
1205,1.205,0.002205,0.003417,0.000251,-0.016544,0.024955,0.001735,-0.014698,-0.003455,
1206,1.206,-0.002645,0.009069,-0.000232,-0.012357,0.039972,-0.007590,-0.015846,-0.002231,
1207,1.207,0.006884,0.003885,0.006563,-0.007163,0.037346,-0.019383,-0.014804,-0.007777,
1208,1.208,0.011007,0.001230,0.016913,-0.006531,0.015046,-0.036239,-0.007507,0.000720,
1209,1.209,0.004807,0.002127,0.012884,-0.010816,0.017957,-0.051737,-0.002925,0.001789,
1210,1.210,0.001642,0.002852,0.006662,-0.017302,0.020732,-0.053722,-0.002079,0.002857,
1211,1.211,0.008973,-0.000646,0.003480,-0.018203,0.018396,-0.070438,-0.002757,0.002062,
1212,1.212,0.008189,0.001102,0.000473,-0.011324,0.016217,-0.081570,-0.000756,-0.002117,
1213,1.213,0.004013,0.002852,0.001359,-0.006822,0.010145,-0.050946,-0.002479,0.000133,
1214,1.214,0.004753,0.001382,0.003927,0.002595,0.015764,-0.011189,-0.007773,0.000863,
1215,1.215,0.005497,-0.000770,0.001758,0.003713,0.014129,0.026003,-0.008509,-0.002132,
1216,1.216,0.006066,0.002150,-0.001770,0.002636,0.003535,0.050123,-0.011621,-0.001576,
1217,1.217,0.002059,0.001171,-0.003439,0.003590,-0.000446,0.054446,-0.014560,-0.004054,
1218,1.218,0.003646,-0.000479,0.000656,0.006237,-0.014225,0.058281,-0.009896,-0.002811,
1219,1.219,-0.003235,-0.002136,0.003220,0.005334,-0.016008,0.047397,-0.005741,-0.001567,
1220,1.220,0.002059,-0.001929,-0.003690,0.003081,-0.027810,0.044086,-0.001751,-0.002527,
1221,1.221,0.002960,-0.000208,-0.002645,0.010806,-0.020202,0.029054,0.002911,-0.001451,
1222,1.222,0.000470,-0.000859,-0.001771,0.007704,-0.029911,0.009768,0.002332,-0.001048,
1223,1.223,-0.001691,-0.003210,0.002478,0.016105,-0.036285,-0.002701,0.002764,-0.001157,
1224,1.224,0.000384,-0.003528,-0.004441,0.012844,-0.033162,-0.009375,0.003193,-0.001774,
1225,1.225,-0.001270,-0.000467,-0.005268,0.011784,-0.021732,-0.003320,0.008185,-0.000021,
1226,1.226,-0.005287,-0.003335,-0.002705,0.009033,-0.007923,-0.001517,0.011651,0.000205,
1227,1.227,-0.001710,0.000226,-0.003366,0.011527,-0.006120,0.000083,0.007343,-0.002780,
1228,1.228,0.000515,-0.005857,-0.009768,0.007758,-0.021375,0.010652,0.005579,0.002010,
1229,1.229,0.004433,-0.001631,-0.001974,0.004155,-0.023387,0.000989,0.000781,0.002572,
1230,1.230,-0.003322,-0.005361,-0.002973,0.001065,-0.014009,-0.002669,0.003774,-0.001444,
1231,1.231,-0.008882,-0.006048,-0.000250,0.001534,-0.008837,-0.010362,0.000841,0.000117,
1232,1.232,-0.005826,-0.001829,-0.001081,0.004042,-0.007199,-0.011311,0.001295,0.000493,
1233,1.233,0.000602,-0.001340,-0.004795,-0.001063,-0.000184,-0.008451,0.000911,0.000181,
1234,1.234,-0.012254,0.000164,-0.008340,0.003810,-0.001321,0.002892,-0.003018,0.003760,
1235,1.235,0.015641,0.001329,-0.004107,0.004287,-0.000311,-0.007632,-0.003559,0.000737,
1236,1.236,0.035580,0.004184,0.002324,0.002565,0.011132,-0.028397,-0.002408,-0.000429,
1237,1.237,-0.019083,0.001619,-0.005457,0.001026,0.024916,-0.055492,-0.006327,-0.001432,
1238,1.238,0.004242,-0.000108,-0.002410,0.004054,0.026670,-0.052102,-0.004818,0.002460,
1239,1.239,-0.017106,0.000194,-0.003248,0.003702,0.018071,-0.035930,-0.005176,-0.000077,
1240,1.240,-0.010717,0.000837,-0.002407,0.003344,0.007260,-0.015313,-0.007237,0.004992,
1241,1.241,-0.005009,-0.000384,-0.003091,0.001633,0.005730,-0.007363,-0.006930,0.007002,
1242,1.242,-0.010300,-0.003127,-0.003782,0.002634,0.014341,0.009739,-0.009327,0.002744,
1243,1.243,-0.005608,-0.000800,0.000443,0.004476,0.017378,-0.005929,-0.005625,0.007954,
1244,1.244,-0.010055,-0.003211,-0.000075,0.002098,0.020223,-0.036630,-0.002604,0.007242,
1245,1.245,-0.006231,0.000961,0.000426,-0.000271,0.013631,-0.067422,-0.006512,0.004151,
1246,1.246,-0.002742,-0.003316,0.001611,0.001595,0.000660,-0.087367,0.001262,0.010525,
1247,1.247,-0.012624,0.000683,-0.002294,0.002788,-0.027314,-0.069251,0.009032,0.006242,
1248,1.248,-0.009813,-0.002927,-0.000780,-0.000922,-0.031238,-0.019725,0.008015,0.002452,
1249,1.249,-0.007174,-0.000780,0.000397,-0.006665,-0.042116,0.058500,0.005296,0.001706,
1250,1.250,0.000019,-0.007266,0.000045,-0.005974,-0.045396,0.110453,0.006129,0.003313,
1251,1.251,-0.002252,-0.004619,0.004262,-0.001055,-0.012488,0.100828,0.003926,-0.005576,
1252,1.252,-0.012486,-0.000448,0.003746,0.001999,0.018254,0.109292,0.004602,0.000591,
1253,1.253,-0.003271,-0.002706,0.005257,0.000324,0.038219,0.085757,-0.001135,-0.005086,
1254,1.254,-0.001676,-0.002074,0.003041,-0.003215,0.056314,0.035821,-0.001775,-0.012465,
1255,1.255,-0.000257,0.003619,0.000146,-0.001003,0.066092,0.003344,0.001808,-0.009863,
1256,1.256,-0.004418,0.005773,-0.000876,-0.004866,0.068933,-0.002542,0.006076,-0.009123,
1257,1.257,-0.003341,0.003692,-0.001899,-0.002278,0.038820,-0.007893,0.010178,-0.016164,
1258,1.258,0.002144,0.001951,-0.002911,-0.001857,-0.005169,0.006461,0.015979,-0.013560,
1259,1.259,0.001026,-0.002167,0.001329,-0.002962,-0.010950,0.019727,0.009094,-0.011108,
1260,1.260,0.000070,-0.004757,-0.000368,-0.003219,-0.016251,0.023643,0.021353,-0.005952,
1261,1.261,0.004179,-0.005997,0.001321,0.000745,-0.001967,0.020075,0.016355,-0.006716,
1262,1.262,0.000352,-0.001314,0.004859,-0.003918,-0.006499,0.016783,0.021011,-0.009860,
1263,1.263,0.000902,0.000328,0.003660,-0.002144,-0.010546,0.019539,0.017041,-0.009457,
1264,1.264,0.000264,0.000787,0.006524,-0.003748,-0.014271,0.027577,0.015933,-0.006008,
1265,1.265,0.008928,0.005468,0.006856,-0.004167,-0.024261,0.020256,0.008224,-0.009152,
1266,1.266,0.002534,-0.001521,0.001606,-0.003744,-0.033235,-0.004498,0.009314,-0.006378,
1267,1.267,0.005599,0.002993,0.003795,-0.003998,-0.025303,-0.020967,0.008553,-0.003935,
1268,1.268,0.004447,-0.001282,0.003114,-0.004249,-0.008221,-0.018154,0.000866,-0.001659,
1269,1.269,-0.006010,0.002394,0.000071,-0.005184,0.007170,-0.015488,0.001988,-0.003436,
1270,1.270,0.003492,0.004388,-0.001618,-0.002749,0.017173,-0.003201,-0.002468,-0.003685,
1271,1.271,0.004535,0.003844,0.004134,-0.002015,0.022625,-0.014441,0.001881,-0.002581,
1272,1.272,-0.001180,0.000940,0.003462,-0.005339,0.007309,-0.024695,-0.000200,0.000045,
1273,1.273,0.001730,0.002429,0.001439,-0.003083,-0.006945,-0.030409,0.001944,-0.002402,
1274,1.274,0.000751,0.004608,-0.001601,-0.003364,-0.016196,-0.011960,-0.002181,0.000560,
1275,1.275,0.004838,0.001720,0.001277,-0.002300,-0.014262,-0.004841,-0.004955,-0.003746,
1276,1.276,0.002483,-0.000832,-0.004466,0.002996,-0.015516,-0.011562,-0.007391,0.001436,
1277,1.277,-0.001225,0.001524,0.002482,0.005248,-0.036036,-0.042255,-0.013381,-0.000662,
1278,1.278,-0.001889,0.005250,-0.000222,0.003277,-0.056616,-0.073096,-0.015821,0.003496,
1279,1.279,-0.001545,0.003052,-0.001062,0.001630,-0.059209,-0.069241,-0.013535,0.005131,
1280,1.280,0.006081,0.001871,-0.000369,-0.003580,-0.061546,-0.051168,-0.015499,0.006601,
1281,1.281,0.006925,0.003738,0.001674,0.001364,-0.032303,-0.100734,-0.015940,0.009590,
1282,1.282,0.001517,-0.000825,-0.000004,0.003087,-0.012431,-0.107771,-0.015381,0.008353,
1283,1.283,0.004058,0.000879,0.000523,0.003618,0.012830,-0.049272,-0.014829,0.007292,
1284,1.284,0.004748,0.000384,0.001040,0.004158,0.035699,0.036981,-0.013608,0.006908,
1285,1.285,0.000867,0.001926,0.002238,-0.000022,0.038428,0.071641,-0.010706,0.011273,
1286,1.286,-0.004183,0.004154,-0.003323,0.001728,0.035587,0.102862,-0.014239,0.012934,
1287,1.287,0.001442,0.002148,-0.003968,0.001272,0.047862,0.112379,-0.009997,0.009356,
1288,1.288,0.003469,-0.000373,-0.000398,0.006390,0.045681,0.086503,-0.001203,0.009674,
1289,1.289,0.001287,-0.000016,0.001310,0.007104,0.051828,0.078701,-0.000016,0.010844,
1290,1.290,-0.000561,-0.003709,0.005387,0.005443,0.046292,0.071578,-0.001030,0.008978,
1291,1.291,-0.002918,0.003423,-0.001193,0.006828,0.025500,0.031171,-0.000359,0.009323,
1292,1.292,-0.001370,0.000413,-0.000667,0.003965,0.020416,-0.001052,0.004872,0.004083,
1293,1.293,0.004235,0.005183,-0.003698,0.000421,0.012830,-0.053819,0.002135,0.009338,
1294,1.294,0.000367,0.000990,-0.004865,0.000089,0.008812,-0.060687,-0.003827,0.007323,
1295,1.295,-0.000461,0.006268,0.000909,0.002123,0.000043,-0.054025,0.001370,0.004295,
1296,1.296,-0.004833,0.002758,-0.001605,0.000265,0.003248,-0.024520,-0.003607,0.006013,
1297,1.297,-0.005474,-0.000254,-0.002255,0.005507,0.008442,0.002217,0.003250,0.002485,
1298,1.298,0.000129,0.001468,-0.000210,0.001784,0.003782,0.026547,0.002333,0.007585,
1299,1.299,-0.008458,0.002006,-0.000707,0.002448,-0.009156,0.022298,-0.000287,0.006938,
1300,1.300,-0.000802,-0.002193,-0.001197,0.005472,-0.037132,0.026352,0.001813,0.005279,
1301,1.301,0.002122,-0.001655,-0.002704,0.000205,-0.065104,0.037396,-0.003190,0.003630,
1302,1.302,0.002846,-0.006357,0.003399,0.000863,-0.039745,0.034402,-0.009027,0.005190,
1303,1.303,0.000185,-0.002091,0.002563,0.000337,-0.009953,0.013796,-0.003868,0.003045,
1304,1.304,-0.002128,-0.004931,-0.002675,-0.002556,0.001927,-0.010757,-0.007510,-0.000799,
1305,1.305,-0.004257,0.000848,-0.001992,-0.010361,-0.016134,-0.027149,-0.003347,-0.002272,
1306,1.306,-0.007400,-0.004363,-0.005034,-0.022904,-0.019322,-0.072204,-0.000526,-0.006440,
1307,1.307,-0.004622,0.000574,-0.005544,-0.014465,-0.016437,-0.117444,0.007196,-0.012799,
1308,1.308,-0.006225,-0.002437,0.001212,-0.012936,0.002644,-0.064583,-0.005384,-0.010183,
1309,1.309,-0.004092,0.000473,-0.005223,-0.005986,0.024906,-0.014935,-0.000368,-0.009419,
1310,1.310,-0.010585,-0.003058,0.000693,-0.002254,0.039719,0.030142,-0.005006,-0.002899,
1311,1.311,-0.000335,-0.002707,0.000005,-0.001239,0.042347,0.059314,-0.001004,-0.001951,
1312,1.312,-0.001742,-0.001510,-0.000687,-0.000222,0.039929,0.053988,0.007727,-0.001173,
1313,1.313,-0.002979,0.002736,-0.002390,0.004341,0.037684,0.049203,0.008667,-0.004623,
1314,1.314,-0.002027,0.001066,-0.002909,0.005175,0.027501,0.062370,0.007576,-0.002828,
1315,1.315,0.005186,0.002605,-0.000389,0.002959,0.021915,0.058440,0.001067,-0.006779,
1316,1.316,-0.007056,-0.001601,-0.003453,-0.000600,0.006715,0.040287,-0.003260,-0.007178,
1317,1.317,-0.005437,-0.001082,-0.003142,0.003637,0.000658,0.010427,-0.005556,-0.008251,
1318,1.318,-0.007008,-0.005805,-0.000635,0.008895,-0.012309,0.006463,-0.003622,-0.008469,
1319,1.319,-0.002977,-0.002757,-0.001682,0.009580,-0.020695,0.002848,-0.005419,-0.005815,
1320,1.320,-0.006719,-0.004442,-0.002058,0.007892,-0.031272,0.006009,-0.001469,-0.002481,
1321,1.321,-0.005713,0.000294,-0.000747,0.003819,-0.051985,0.008833,-0.000063,-0.001172,
1322,1.322,-0.006721,-0.006641,0.003109,0.004319,-0.096888,0.016898,0.004905,0.002496,
1323,1.323,0.001743,-0.007497,0.002566,0.003120,-0.181049,0.009582,0.004130,0.000413,
1324,1.324,0.009545,-0.001586,-0.001031,-0.003320,-0.146469,-0.005976,0.003532,-0.005907,
1325,1.325,0.006531,-0.002274,0.000115,-0.007903,-0.115246,-0.032412,0.002938,0.000631,
1326,1.326,0.009287,-0.007196,0.006494,-0.010463,-0.048763,-0.035839,-0.001881,0.003266,
1327,1.327,0.013576,-0.005520,0.001877,-0.005234,0.029102,-0.032555,0.001090,-0.001871,
1328,1.328,0.008397,-0.000297,0.000988,-0.000352,0.081416,-0.035419,0.008626,-0.001093,
1329,1.329,0.012025,-0.002346,0.003140,-0.006133,0.110017,-0.043583,0.005516,0.000688,
1330,1.330,0.005181,0.001865,0.003775,-0.000924,0.136041,-0.075933,0.010027,0.002465,
1331,1.331,0.007997,0.001329,-0.000495,0.003938,0.128386,-0.097922,0.009140,0.001018,
1332,1.332,0.005566,0.002829,0.004709,-0.005573,0.121429,-0.078011,0.009779,0.002277,
1333,1.333,0.001969,0.000600,-0.000233,-0.012555,0.102282,-0.052673,0.009075,-0.000530,
1334,1.334,0.007013,-0.003324,-0.000783,-0.016328,0.073138,-0.009660,0.008543,-0.001482,
1335,1.335,0.002934,0.002392,-0.003691,-0.010796,0.025201,0.019791,0.009043,-0.001754,
1336,1.336,0.000226,0.006087,0.001010,-0.005606,-0.033094,0.035968,0.011581,-0.001347,
1337,1.337,0.002931,0.004029,0.004017,0.000768,-0.056386,0.060424,0.004654,-0.000605,
1338,1.338,-0.002970,-0.001755,0.002286,0.003246,-0.049229,0.064999,0.001635,-0.003440,
1339,1.339,0.005020,0.000415,0.001746,0.000989,-0.029905,0.045109,0.000826,-0.004418,
1340,1.340,0.002189,-0.003167,0.000535,0.010231,-0.012408,0.005058,0.003401,0.000838,
1341,1.341,0.003265,-0.002693,0.002538,0.011347,-0.028216,-0.042951,0.008675,-0.002891,
1342,1.342,0.007744,-0.001032,0.001492,0.010262,-0.032888,-0.075286,0.012267,0.000646,
1343,1.343,0.010197,0.000457,-0.002431,0.007142,-0.019653,-0.069628,0.011800,0.001125,
1344,1.344,0.008445,-0.001767,-0.003989,0.004359,0.000298,-0.064430,0.018265,-0.004156,
1345,1.345,0.004506,0.002938,-0.005203,0.006815,0.018358,-0.011082,0.019151,0.003581,
1346,1.346,0.011235,0.005956,-0.000490,0.004538,0.028095,0.038728,0.009212,0.002520,
1347,1.347,0.002079,0.004242,0.002524,0.008009,0.019218,0.058071,0.007904,-0.000222,
1348,1.348,0.003587,0.004721,-0.002747,0.007430,0.005449,0.075518,0.009130,0.000607,
1349,1.349,0.007147,0.000473,-0.002087,0.007855,0.007766,0.038271,0.001387,-0.001598,
1350,1.350,0.006483,0.000963,0.000938,0.006260,0.001146,0.004336,-0.012266,0.000431,
1351,1.351,0.004142,0.001441,0.000407,0.004997,-0.004940,-0.000176,-0.014079,-0.002621,
1352,1.352,0.005366,0.000233,0.000902,0.001030,-0.010518,0.003569,-0.015722,0.002621,
1353,1.353,-0.001193,0.005781,-0.001301,0.001472,-0.008740,0.043480,-0.029549,0.000579,
1354,1.354,0.001907,0.003558,-0.002492,0.002608,-0.003971,0.059175,-0.031351,0.000057,
1355,1.355,0.001456,0.002861,0.000038,-0.003867,-0.002399,0.054234,-0.022824,-0.000475,
1356,1.356,-0.005084,-0.001377,0.003247,-0.017962,0.001484,0.049649,-0.018178,-0.005241,
1357,1.357,-0.007385,-0.004265,-0.000648,-0.020047,-0.003988,0.045591,-0.016745,-0.003595,
1358,1.358,-0.004438,0.001486,-0.000146,-0.014505,0.001313,0.041869,-0.012945,-0.000771,
1359,1.359,0.001217,0.005197,0.002058,-0.006084,0.005872,0.031947,-0.013883,-0.001330,
1360,1.360,-0.003275,0.003162,0.003249,-0.004581,-0.001940,0.011100,-0.012785,0.001675,
1361,1.361,-0.001171,0.001459,0.000722,-0.003248,-0.003020,-0.018996,-0.004251,0.000466,
1362,1.362,0.008047,-0.001419,-0.001636,0.002991,-0.009532,-0.030790,-0.007395,0.002979,
1363,1.363,0.009640,0.000103,0.002098,0.003996,-0.022493,-0.019938,-0.004279,0.001946,
1364,1.364,0.015623,-0.002925,0.000933,-0.003284,-0.035601,-0.016742,0.002216,0.001586,
1365,1.365,0.019065,-0.000888,0.001292,-0.011748,-0.030599,-0.007977,0.003120,0.002245,
1366,1.366,0.005418,-0.000538,0.002333,-0.012769,-0.029172,-0.021692,0.002503,-0.001669,
1367,1.367,-0.004346,0.001846,0.002014,-0.007535,-0.016753,-0.019280,0.006114,0.001187,
1368,1.368,-0.009567,-0.000508,0.002379,-0.002974,-0.008382,-0.017031,0.010400,-0.002386,
1369,1.369,-0.004145,0.003226,0.003087,0.008195,-0.009928,-0.006874,0.013337,-0.005444,
1370,1.370,-0.008366,-0.000310,0.000747,0.003628,-0.005846,-0.008793,0.010845,0.000972,
1371,1.371,-0.003976,0.002758,-0.000915,0.004976,-0.004661,-0.017358,0.005822,0.000120,
1372,1.372,-0.004853,0.001606,0.003345,0.003780,-0.001477,-0.040508,0.003838,0.002660,
1373,1.373,-0.005571,0.001291,-0.003551,0.004785,-0.017314,-0.090217,0.002193,0.000464,
