Frame,Time,RightBicepsbrachiicaputbrevis,RightTricepsbrachiicaputlongus,LeftBicepsbrachiicaputbrevis,LeftTricepsbrachiicaputlongus,RightTrapeziusdescendens,LeftTrapeziusdescendens,RightLatissimusDorsi,LeftLatissimusDorsi,
0,0.000,0.010069,-0.006152,0.003786,0.022256,0.001876,0.007570,0.008004,-0.002477,
1,0.001,0.006834,0.000260,-0.000666,0.020035,0.005626,0.017049,0.001909,-0.008840,
2,0.002,0.006648,0.002105,-0.004773,0.013251,0.010560,0.023106,-0.007172,-0.002910,
3,0.003,0.007655,0.007502,0.000595,0.013153,0.007544,0.030625,-0.025572,-0.002242,
4,0.004,0.009828,0.009004,0.001399,0.008513,0.012821,0.025183,-0.033079,-0.004272,
5,0.005,0.006790,0.004253,-0.001509,0.004917,0.010830,0.027669,-0.030115,-0.000079,
6,0.006,0.003114,-0.002868,-0.000861,-0.006159,0.002587,0.023276,-0.018448,0.003904,
7,0.007,0.004160,0.003204,0.005030,-0.000444,0.001629,0.017923,-0.023972,-0.000864,
8,0.008,-0.000001,-0.002562,0.001443,0.001008,0.002702,0.010110,-0.017868,0.000773,
9,0.009,-0.006315,-0.001723,-0.003335,-0.004022,0.003599,0.007064,-0.012321,0.001226,
10,0.010,0.002679,0.000812,-0.010148,-0.016905,0.004494,0.006230,-0.007316,-0.000340,
11,0.011,0.000009,-0.003592,-0.001571,-0.021240,0.000823,-0.001463,-0.008232,0.004648,
12,0.012,-0.000459,-0.001563,-0.002480,-0.012149,-0.006898,-0.004387,-0.001593,0.001031,
13,0.013,-0.000776,0.000299,0.000670,-0.010131,-0.003801,-0.005106,-0.004412,0.002654,
14,0.014,-0.002768,0.000641,-0.001919,-0.003091,-0.004592,-0.009183,-0.005030,-0.002612,
15,0.015,-0.001579,0.005729,-0.000964,0.002959,-0.002004,-0.003827,-0.000123,-0.004653,
16,0.016,-0.007468,0.003549,-0.006108,0.001840,-0.001268,-0.001707,-0.005667,-0.004159,
17,0.017,-0.004428,0.000362,-0.002462,0.002735,0.000816,-0.004622,-0.004627,-0.003669,
18,0.018,-0.006129,-0.003826,-0.004064,0.001837,-0.002162,-0.005008,-0.006296,0.003029,
19,0.019,-0.004991,0.003822,-0.003459,0.002631,0.005519,-0.003378,-0.001750,0.000275,
20,0.020,-0.010268,0.004697,-0.002858,0.000476,0.004579,-0.002093,-0.007829,0.004421,
21,0.021,-0.010496,0.007610,-0.002442,-0.006969,0.000085,-0.006693,-0.006645,0.000651,
22,0.022,-0.009409,0.004772,-0.000335,-0.011698,-0.007622,-0.004877,-0.001114,0.005471,
23,0.023,-0.014739,0.010568,0.001599,-0.005018,-0.004511,-0.001895,-0.002846,0.003699,
24,0.024,-0.007478,0.009773,0.002005,-0.002328,-0.005285,-0.000281,0.006839,0.001937,
25,0.025,-0.009867,0.007619,-0.001665,-0.002846,-0.002678,-0.002376,0.005700,0.004393,
26,0.026,-0.015460,0.009201,-0.002798,0.003528,-0.000411,-0.006128,0.009593,0.002124,
27,0.027,-0.011472,0.014349,-0.001576,-0.000623,-0.006756,-0.005472,0.004216,0.000879,
28,0.028,-0.013264,0.006471,-0.007295,-0.007282,-0.002423,-0.004975,0.005412,0.001822,
29,0.029,-0.012560,-0.000906,-0.003036,-0.009651,-0.002987,-0.006000,-0.002810,-0.002107,
30,0.030,-0.011903,-0.005565,-0.002333,-0.015095,-0.002188,-0.007688,0.000599,-0.006845,
31,0.031,-0.009269,0.000259,-0.007217,-0.009552,-0.002585,-0.005168,-0.000229,-0.002638,
32,0.032,-0.013408,-0.006774,-0.005499,-0.005808,-0.001945,-0.002677,-0.000895,0.000185,
33,0.033,-0.012845,-0.004174,-0.005991,-0.002641,-0.001295,-0.000046,-0.003246,-0.002386,
34,0.034,-0.015344,-0.005105,-0.004445,-0.008787,-0.002344,-0.005155,-0.005260,-0.001241,
35,0.035,-0.014171,-0.002972,-0.003244,-0.000935,-0.001036,-0.005705,-0.003070,-0.000103,
36,0.036,-0.015397,0.000530,-0.002893,0.006223,-0.000602,-0.004925,-0.002426,-0.000484,
37,0.037,-0.017332,0.000998,-0.001022,0.014344,-0.000202,-0.007852,-0.001788,0.001153,
38,0.038,-0.015765,0.000453,-0.002031,0.006417,-0.001177,-0.006071,-0.003196,0.000764,
39,0.039,-0.013567,0.003966,-0.000334,0.005300,-0.000985,-0.002464,-0.000059,0.002060,
40,0.040,-0.015116,0.003599,-0.001698,0.000706,0.000217,-0.006610,0.000352,0.003181,
41,0.041,-0.013661,0.001553,-0.000018,0.004789,0.000403,-0.000137,-0.005286,-0.000573,
42,0.042,-0.017622,0.000515,0.001161,-0.003641,0.002774,-0.002614,-0.006040,0.000920,
43,0.043,-0.014357,0.003713,0.004372,-0.006759,0.002433,0.002677,-0.009651,0.003068,
44,0.044,-0.011643,0.002523,0.005545,-0.009665,0.001744,-0.002146,-0.008881,0.007725,
45,0.045,-0.014023,0.001501,0.003501,-0.017855,-0.000651,0.002122,-0.010498,0.000758,
46,0.046,-0.013384,0.002515,0.006006,-0.009971,0.002367,-0.005425,-0.015659,-0.000114,
47,0.047,-0.015469,0.001491,0.007672,0.005540,0.002683,0.006058,-0.016271,-0.002657,
48,0.048,-0.012857,0.001292,0.006637,-0.001149,0.002319,0.004516,-0.006804,-0.003335,
49,0.049,-0.012301,0.001936,0.003573,-0.011207,0.002622,0.003143,-0.002784,-0.002663,
50,0.050,-0.007561,0.000739,-0.001184,-0.020258,0.003934,-0.003116,0.015999,-0.003174,
51,0.051,-0.013291,0.000560,-0.002895,-0.011696,0.003212,-0.004125,0.023913,0.003210,
52,0.052,-0.008920,0.002752,-0.004611,-0.019080,0.001478,-0.007149,0.021365,0.007367,
53,0.053,-0.008958,-0.001485,-0.010394,-0.028324,-0.001438,-0.000758,0.010088,0.003611,
54,0.054,-0.009007,0.000212,-0.011099,-0.034075,-0.005036,-0.006690,-0.000111,0.004259,
55,0.055,-0.003852,0.001903,-0.009093,-0.028124,-0.009313,-0.004523,-0.009415,0.001203,
56,0.056,-0.003782,-0.000651,-0.004895,-0.020620,-0.007663,-0.005231,-0.014463,0.005242,
57,0.057,0.000485,-0.003720,-0.000870,-0.006594,-0.000944,-0.002242,-0.012915,0.000519,
58,0.058,0.002882,-0.004911,0.001640,0.007367,0.001717,-0.001809,-0.016929,0.001032,
59,0.059,0.007447,-0.000691,0.002796,0.008942,0.000822,-0.004394,-0.010646,0.000537,
60,0.060,0.001894,-0.002396,0.008352,0.010326,-0.004476,-0.004728,-0.009590,0.004073,
61,0.061,0.009508,-0.001898,0.006114,0.017485,0.001893,-0.000838,-0.004351,-0.002830,
62,0.062,0.001114,-0.001575,-0.004568,0.015723,0.000986,0.006860,-0.003513,-0.003808,
63,0.063,0.007750,-0.004481,-0.000027,0.021518,0.003116,0.005733,0.004218,-0.001089,
64,0.064,0.011678,-0.006363,0.004013,0.008750,-0.001852,0.008622,0.005166,-0.001920,
65,0.065,0.006852,-0.007399,0.005181,0.006836,0.002315,0.000028,0.004268,-0.002583,
66,0.066,0.006956,-0.011815,0.004153,0.005129,-0.006545,0.007622,0.008420,-0.004581,
67,0.067,0.011274,-0.004223,-0.003143,-0.004567,-0.005414,0.008440,0.007674,-0.002867,
68,0.068,0.014920,0.003042,-0.002309,0.004057,-0.008678,0.005551,0.011121,-0.001167,
69,0.069,0.016043,0.000341,0.005465,0.014070,-0.005695,0.006201,0.004101,-0.003670,
70,0.070,0.018020,0.002903,0.002420,0.012447,-0.004897,0.003816,0.003154,-0.003293,
71,0.071,0.017818,0.000724,0.001576,0.013356,0.000985,0.000099,-0.001163,0.002299,
72,0.072,0.023708,0.000073,0.002438,0.012081,-0.002767,0.001616,-0.000578,0.004500,
73,0.073,0.018664,0.005839,0.009386,0.017006,-0.000770,0.003129,-0.002669,-0.000373,
74,0.074,0.019061,-0.001086,0.004837,0.012186,-0.000287,-0.001750,0.000312,0.002691,
75,0.075,0.016462,-0.005648,0.009081,0.012777,-0.009113,-0.010130,-0.001409,0.003217,
76,0.076,0.020974,-0.001421,0.008420,0.014718,-0.020468,-0.017956,0.001097,0.005766,
77,0.077,0.020104,0.005515,0.004891,0.012475,-0.022000,-0.010780,-0.001090,0.001576,
78,0.078,0.023814,0.000955,0.003222,0.015284,-0.023367,-0.010028,0.001765,0.001109,
79,0.079,0.019973,0.006864,0.002745,0.012232,-0.012047,-0.007593,0.003595,-0.005574,
80,0.080,0.018548,0.009045,-0.002976,0.004379,-0.022717,-0.000795,0.002515,0.002917,
81,0.081,0.014472,0.015457,0.000760,-0.012585,-0.024084,0.003609,0.002111,0.001939,
82,0.082,0.012796,0.002597,-0.007003,-0.014799,-0.015293,-0.000756,0.003385,0.000973,
83,0.083,0.015699,-0.006714,-0.003928,-0.012455,-0.004976,0.004340,0.001634,0.000188,
84,0.084,0.015933,-0.011788,-0.003049,-0.010288,0.013126,0.011929,0.005280,0.001087,
85,0.085,0.021572,-0.013309,-0.003859,0.002749,0.030380,0.010730,-0.001516,0.001826,
86,0.086,0.020646,-0.009249,-0.003134,0.001111,0.036977,0.015093,0.006892,0.001223,
87,0.087,0.015377,-0.002980,-0.003761,-0.012543,0.039011,0.015742,-0.000894,0.000782,
88,0.088,0.014708,-0.006191,0.004575,0.004244,0.033429,0.008654,0.002124,0.000348,
89,0.089,0.011712,-0.009238,0.001406,0.015333,0.024966,0.000098,-0.006327,-0.001093,
90,0.090,0.008933,-0.000777,-0.003793,0.013258,0.026482,-0.003188,0.003948,-0.007915,
91,0.091,0.004342,-0.001788,-0.006447,0.004006,0.022420,-0.018899,-0.000136,-0.000557,
92,0.092,0.001471,-0.004828,-0.002170,0.005740,0.021238,-0.021047,0.001012,-0.001323,
93,0.093,0.005707,-0.000250,-0.001440,0.019510,0.022261,-0.010900,0.011246,-0.000406,
94,0.094,0.001199,-0.001070,0.007919,0.010205,0.015003,0.002070,0.018059,0.001853,
95,0.095,0.004478,0.005889,0.001705,0.011885,0.006570,0.003700,0.021647,-0.000111,
96,0.096,0.003037,0.019953,-0.003828,0.004339,0.003386,0.005170,0.015965,0.001627,
97,0.097,0.002126,0.020182,-0.004551,0.001250,0.005322,0.006458,0.011153,0.002519,
98,0.098,-0.002294,0.005956,-0.003459,-0.002618,0.004285,0.013321,0.003849,0.004245,
99,0.099,-0.002482,0.004102,-0.004219,-0.006110,0.003427,0.012071,-0.008280,0.003778,
100,0.100,-0.001651,0.005782,-0.003303,-0.011418,-0.000774,0.011007,-0.020000,0.002632,
101,0.101,-0.003841,0.007273,0.000447,-0.026735,-0.004433,0.013989,-0.021384,-0.000188,
102,0.102,-0.003159,0.000368,0.001143,-0.037373,-0.006377,0.013101,-0.025298,-0.004347,
103,0.103,-0.003985,0.004090,-0.000505,-0.018576,-0.005790,0.003641,-0.016426,-0.001416,
104,0.104,-0.004635,0.009630,0.002384,-0.015858,-0.014418,-0.002553,-0.006108,-0.006097,
105,0.105,-0.005964,0.008592,0.004906,-0.013329,-0.015430,-0.008027,-0.002063,-0.005548,
106,0.106,-0.009302,0.000191,0.002722,-0.002949,-0.016262,-0.006896,-0.000878,-0.002652,
107,0.107,-0.009260,-0.000763,0.000735,0.006503,-0.013044,-0.020747,-0.006417,-0.002128,
108,0.108,-0.007706,0.002318,-0.002750,0.004989,-0.008335,-0.051025,-0.015772,0.003935,
109,0.109,-0.010878,0.001524,0.004193,0.021934,-0.005677,-0.055057,-0.001833,-0.000314,
110,0.110,-0.013544,0.002417,0.001188,0.010897,-0.006232,-0.026904,-0.003594,0.003363,
111,0.111,-0.016043,0.012348,0.002075,0.000961,-0.004102,-0.001400,-0.001797,0.006851,
112,0.112,-0.019890,0.005408,0.001268,-0.008040,-0.005677,0.015075,0.002856,0.008460,
113,0.113,-0.019022,0.004230,-0.002390,0.000656,-0.005065,0.029971,-0.003960,0.007860,
114,0.114,-0.021198,0.003231,-0.001652,-0.000623,-0.001438,0.032671,-0.000132,0.003056,
115,0.115,-0.016645,0.002211,0.002601,0.003609,-0.006392,0.030314,-0.005579,0.003485,
116,0.116,-0.015830,-0.008025,-0.000235,0.004937,-0.005598,0.023754,0.005997,0.007433,
117,0.117,-0.015029,-0.017489,-0.001707,0.004047,0.001387,0.025819,0.016686,0.002612,
118,0.118,-0.009707,-0.020996,-0.003849,-0.001057,-0.003088,0.023996,0.029173,-0.003209,
119,0.119,-0.008800,-0.015246,-0.002615,-0.001775,-0.008880,0.018982,0.027462,-0.002604,
120,0.120,-0.012798,-0.014076,-0.008262,0.000853,-0.013941,0.014494,0.022880,-0.006219,
121,0.121,-0.014270,-0.007549,-0.002293,0.001600,-0.011746,0.010527,0.010388,-0.004604,
122,0.122,-0.015583,-0.001568,-0.002913,0.009364,-0.009898,0.004390,-0.001381,-0.007547,
123,0.123,-0.012362,0.000663,0.000666,0.010335,-0.003370,0.001317,-0.011927,-0.008117,
124,0.124,-0.013385,0.002706,-0.000991,0.001901,-0.004115,-0.001561,-0.018729,-0.009371,
125,0.125,-0.010714,0.001020,-0.003822,-0.001268,-0.006201,0.004999,-0.032396,-0.011465,
126,0.126,-0.008241,-0.001828,-0.000240,-0.004250,-0.004072,0.000912,-0.019224,-0.009009,
127,0.127,-0.013198,0.004928,-0.006262,-0.014410,0.002916,-0.001143,-0.014014,-0.010110,
128,0.128,-0.015117,0.004075,-0.000334,-0.012939,0.003808,-0.000316,0.009036,-0.006501,
129,0.129,-0.013336,0.001548,0.011075,-0.001599,0.006375,0.001516,0.012271,-0.006276,
130,0.130,-0.004501,-0.002148,0.005946,0.002920,0.002710,0.002166,0.015155,-0.005215,
131,0.131,-0.003296,-0.001454,0.001349,-0.001168,0.003433,-0.004438,0.007074,-0.006335,
132,0.132,-0.006492,-0.003116,-0.000018,-0.004920,0.002983,0.002123,0.004763,-0.004755,
133,0.133,-0.001269,-0.001430,0.001135,-0.015211,0.005897,-0.000280,-0.001748,-0.009924,
134,0.134,0.001408,0.002075,-0.004428,-0.016517,0.007449,0.000517,-0.011783,-0.012035,
135,0.135,0.002209,-0.001004,-0.003400,-0.012778,0.005307,-0.002910,-0.009819,-0.003860,
136,0.136,0.001494,0.004500,0.001142,-0.007218,0.009221,-0.005813,-0.001316,-0.004992,
137,0.137,0.003453,0.006609,0.001943,-0.008269,0.011757,-0.006186,0.006299,-0.004101,
138,0.138,0.000339,0.004503,0.002575,-0.007491,0.012917,-0.005555,0.007629,-0.001530,
139,0.139,-0.000240,0.002747,-0.002331,-0.003344,0.010014,-0.011494,0.008770,-0.005869,
140,0.140,0.007441,0.001004,0.001862,-0.001242,0.007444,-0.013868,0.009719,-0.002272,
141,0.141,0.004137,-0.002575,-0.001038,0.000663,0.005041,-0.008478,0.008657,0.001141,
142,0.142,0.001003,-0.009495,-0.000557,0.002198,-0.000050,-0.007679,0.009437,0.001526,
143,0.143,0.001762,-0.006461,0.005460,0.002538,-0.004954,-0.007064,0.006855,0.004279,
144,0.144,0.005886,-0.005633,-0.000485,0.002869,-0.006640,-0.009829,0.004625,0.004674,
145,0.145,0.005134,-0.008171,0.000168,-0.004205,-0.004975,-0.004036,0.003943,0.000361,
146,0.146,0.000160,-0.013375,0.002154,-0.009559,-0.004514,-0.009248,0.000899,0.000784,
147,0.147,0.009564,-0.012648,-0.000931,-0.010535,-0.003392,-0.005650,-0.004364,-0.002840,
148,0.148,0.010847,-0.006877,0.000718,-0.006473,-0.000602,-0.008653,-0.007937,0.002164,
149,0.149,0.009605,-0.001672,0.001176,-0.002947,0.001821,-0.005764,-0.003744,-0.001456,
150,0.150,0.010566,0.001813,0.002302,-0.001128,-0.001499,-0.010514,0.005010,0.004227,
151,0.151,0.009510,0.001233,-0.004144,-0.007061,-0.000438,-0.010022,0.016287,0.003492,
152,0.152,0.008624,-0.005234,-0.003307,-0.015639,-0.005611,-0.012890,0.020805,0.011215,
153,0.153,0.014516,-0.007822,0.002568,-0.012551,-0.002180,-0.018645,0.008244,0.014210,
154,0.154,0.012290,-0.005710,-0.002692,0.000965,-0.003982,-0.016478,-0.010404,0.011470,
155,0.155,0.011601,-0.002250,-0.004732,0.006348,-0.011655,-0.012981,-0.017710,0.008908,
156,0.156,0.012114,-0.004015,0.002156,0.004487,-0.010704,-0.008831,-0.028920,0.011094,
157,0.157,0.010431,-0.006959,0.001256,0.008869,-0.008076,-0.006058,-0.030998,0.014650,
158,0.158,0.015183,-0.003481,-0.003003,0.004651,-0.003940,-0.005661,-0.032910,0.012973,
159,0.159,0.012159,0.003349,-0.006727,0.000802,-0.003349,-0.003602,-0.031269,0.011303,
160,0.160,0.015062,0.012670,-0.003190,-0.007038,0.000098,-0.004053,-0.020649,0.008780,
161,0.161,0.012564,0.011338,-0.004899,-0.018540,0.004200,-0.002272,-0.016618,0.011842,
162,0.162,0.011439,0.008024,-0.004406,-0.014012,0.003574,0.002901,-0.010389,0.006290,
163,0.163,0.012684,0.023560,-0.001894,-0.001607,-0.002269,0.002154,-0.009410,0.007002,
164,0.164,0.007001,0.016801,0.002288,0.003336,-0.001687,0.002772,-0.002176,0.011942,
165,0.165,0.002846,0.002509,0.000554,0.013786,0.000248,0.004400,-0.003057,0.002504,
166,0.166,0.008181,0.000564,0.002033,0.017617,-0.001531,0.009569,0.001123,0.006606,
167,0.167,0.006243,0.002167,-0.000196,0.026143,0.003593,0.007446,0.000403,0.002933,
168,0.168,0.004647,0.000574,-0.003078,0.029091,-0.002910,0.009045,0.005263,0.001979,
169,0.169,0.004237,0.001853,-0.000571,0.023640,-0.002141,0.009446,0.013504,0.003055,
170,0.170,0.000801,-0.006954,-0.004470,0.027972,-0.002903,0.006797,0.012433,0.003969,
171,0.171,0.003106,-0.001406,-0.002973,0.025199,-0.002309,0.003633,0.015410,-0.000192,
172,0.172,-0.000672,0.001602,0.002064,0.013551,0.000640,-0.002917,0.016178,0.000565,
173,0.173,-0.002081,0.007949,0.004052,0.001665,0.002238,-0.000333,0.008307,0.001315,
174,0.174,-0.004150,0.002002,-0.004226,-0.002874,-0.005573,0.002082,0.005167,0.001915,
175,0.175,-0.006901,-0.004912,-0.001028,-0.020879,-0.013340,0.004176,-0.001350,0.004884,
176,0.176,-0.007783,-0.000353,0.004168,-0.008524,-0.010306,0.003396,-0.007371,0.005488,
177,0.177,-0.007311,-0.004564,0.010521,0.002593,-0.007618,0.006341,0.001020,0.001358,
178,0.178,-0.010229,0.003873,0.006241,0.004571,0.000108,0.003363,-0.000056,-0.001423,
179,0.179,-0.011117,0.002854,0.006874,-0.001025,-0.000942,0.011046,0.000933,-0.006052,
180,0.180,-0.009978,0.001850,0.003305,0.004031,-0.005525,0.009939,-0.005508,-0.007632,
181,0.181,-0.006809,0.004552,0.003792,0.008562,0.000339,0.008841,-0.006374,-0.005821,
182,0.182,-0.012441,0.007073,-0.001451,-0.001052,0.002471,0.013331,0.000548,-0.009253,
183,0.183,-0.009783,0.007734,-0.002124,-0.002200,0.000377,0.015806,0.003246,-0.007947,
184,0.184,-0.013374,0.008409,0.000916,0.001030,0.006037,0.004244,0.011011,-0.002237,
185,0.185,-0.003940,0.006743,0.009662,0.006269,0.003762,0.005883,0.018258,0.000085,
186,0.186,-0.004997,0.007263,0.003392,0.008981,0.003018,0.004321,0.020938,-0.000453,
187,0.187,-0.005904,0.003749,0.000186,0.003108,0.004642,-0.008231,0.025145,-0.004544,
188,0.188,-0.011042,-0.001250,0.001204,0.002484,0.006265,-0.016711,0.025803,-0.003904,
189,0.189,-0.011780,0.002360,0.002041,0.001872,0.009732,-0.021291,0.015128,-0.004278,
190,0.190,-0.005752,0.001906,-0.000479,0.003630,0.009312,-0.014351,0.016634,-0.008383,
191,0.191,-0.009378,0.001433,0.004759,0.004203,0.009559,-0.005551,0.004105,-0.012325,
192,0.192,-0.004383,0.001966,-0.001639,0.008988,0.006953,0.004790,0.002408,-0.014747,
193,0.193,-0.005999,-0.001026,-0.000770,0.002130,0.009238,0.020050,-0.005199,-0.008539,
194,0.194,-0.006436,-0.003841,-0.001408,0.001366,0.008821,0.018062,-0.012119,-0.005891,
195,0.195,-0.003839,-0.009513,0.005019,0.009193,0.006897,0.001362,-0.005846,-0.007990,
196,0.196,-0.000736,-0.017168,-0.000874,0.008220,0.008030,-0.000781,-0.011403,-0.004350,
197,0.197,-0.007101,-0.009799,0.001345,0.005568,0.010168,0.013484,-0.006134,-0.001224,
198,0.198,-0.004503,-0.008019,0.001934,0.004109,0.013488,0.019638,-0.008472,0.002399,
199,0.199,-0.007152,-0.001524,0.002632,0.005025,0.012748,0.010402,-0.003871,-0.001591,
200,0.200,-0.002868,0.002751,-0.005633,-0.006340,0.011527,-0.011501,-0.006363,0.001007,
201,0.201,-0.003497,0.014246,-0.004591,-0.014630,0.007788,-0.008536,-0.008507,-0.001977,
202,0.202,0.000092,0.026011,-0.003551,-0.012946,0.006259,-0.000319,-0.002022,-0.005809,
203,0.203,-0.004112,0.012116,0.002907,-0.019697,-0.000651,0.007052,-0.001135,-0.007275,
204,0.204,-0.008133,0.002829,-0.001285,-0.023214,-0.001619,0.013748,0.008884,-0.006881,
205,0.205,-0.004554,0.004529,0.003996,-0.017454,-0.002423,0.024010,0.007549,-0.008868,
206,0.206,-0.001488,-0.006062,0.003356,-0.010051,-0.006590,0.014825,0.003853,-0.008500,
207,0.207,0.003271,-0.010058,-0.002355,-0.012638,-0.008716,0.016647,-0.001710,-0.003915,
208,0.208,0.003789,-0.013681,-0.002991,-0.015044,-0.006602,-0.000125,-0.002693,0.003030,
209,0.209,0.000925,-0.008021,0.001945,-0.012736,-0.008176,-0.002183,-0.009095,0.007598,
210,0.210,-0.004811,-0.017380,-0.001076,-0.006255,-0.008540,0.004049,-0.006543,0.003354,
211,0.211,0.000456,-0.016089,-0.003918,-0.007038,-0.002677,0.006050,-0.001272,0.004011,
212,0.212,0.004029,-0.008244,-0.006419,-0.003254,-0.001890,-0.002265,-0.003268,0.006004,
213,0.213,0.007095,-0.002974,-0.001310,0.007427,-0.006677,-0.006685,-0.004913,0.005454,
214,0.214,0.004240,0.007340,-0.001949,0.012007,-0.006067,-0.007902,0.001561,0.003713,
215,0.215,0.010008,0.000415,-0.003601,0.007970,-0.001929,-0.006576,0.002473,0.004172,
216,0.216,0.012217,-0.005825,-0.006434,-0.003289,-0.002366,-0.009630,0.006265,-0.002818,
217,0.217,0.015794,-0.002609,0.000367,-0.017014,-0.005341,-0.006407,0.008370,-0.001864,
218,0.218,0.006342,-0.001600,0.003116,-0.007597,0.001138,-0.008954,0.005417,-0.001082,
219,0.219,0.013300,-0.000771,0.005692,0.011015,-0.003370,-0.007973,0.005005,0.001382,
220,0.220,0.009608,-0.001630,0.000496,-0.001308,-0.000791,-0.008538,0.000373,-0.000891,
221,0.221,0.010647,0.009795,-0.003023,-0.012400,-0.004445,-0.009119,0.000989,0.005463,
222,0.222,0.003396,-0.002073,-0.003498,-0.034743,-0.010778,-0.008537,0.000588,-0.002397,
223,0.223,0.007994,-0.003602,0.002970,-0.007654,-0.008152,-0.016090,-0.002860,0.000560,
224,0.224,0.005478,0.000444,0.003854,0.010367,-0.001162,-0.008758,0.002305,0.001311,
225,0.225,0.006179,-0.000754,0.001690,0.007078,-0.001949,-0.009565,-0.005395,0.003750,
226,0.226,0.008237,0.000244,-0.000309,0.004147,-0.001061,-0.003600,-0.002282,0.008890,
227,0.227,0.006582,-0.004995,-0.001983,0.006807,-0.007922,-0.001357,-0.008658,0.003886,
228,0.228,0.009503,-0.009541,-0.000264,0.004406,-0.001448,-0.000657,-0.014542,0.002088,
229,0.229,0.012085,-0.006998,-0.002785,0.006560,0.002814,-0.002336,-0.006102,-0.000894,
230,0.230,0.011794,-0.003281,0.000273,0.000443,0.003519,-0.004021,-0.013924,-0.000486,
231,0.231,0.005421,-0.002614,0.001469,0.002280,0.008438,-0.004548,-0.014974,-0.000245,
232,0.232,-0.000949,-0.009546,-0.002073,0.003946,0.007949,-0.003377,-0.008566,-0.005070,
233,0.233,-0.001749,-0.014127,-0.003260,0.005423,0.005102,-0.000520,-0.002632,-0.002115,
234,0.234,-0.002369,-0.004684,-0.004444,-0.001533,0.001585,-0.006308,0.002649,-0.006255,
235,0.235,0.005479,-0.003534,-0.000226,-0.000394,-0.000567,-0.003832,0.007627,-0.005818,
236,0.236,0.002499,-0.006779,0.000271,0.002737,-0.003395,-0.004545,0.009400,-0.001648,
237,0.237,-0.003864,-0.005806,0.006001,0.001656,-0.002339,-0.002501,0.008976,-0.002210,
238,0.238,-0.006342,0.000563,-0.004001,0.000739,-0.003312,-0.009431,0.007522,0.000287,
239,0.239,0.002160,0.013302,-0.002668,0.003207,0.001771,-0.000997,0.004531,0.004473,
240,0.240,-0.001008,0.015038,-0.003871,0.000944,-0.003118,-0.002062,-0.000171,0.003927,
241,0.241,0.002080,0.003137,-0.000681,0.007288,-0.001430,-0.003135,-0.004377,-0.000851,
242,0.242,0.001272,0.010675,-0.003753,0.006375,-0.000929,-0.000499,-0.010801,0.002161,
243,0.243,0.005547,0.017517,-0.001079,0.004130,-0.001458,0.000280,-0.006575,0.003819,
244,0.244,0.000342,0.008662,0.001428,0.006104,-0.006530,0.003940,-0.010309,0.004301,
245,0.245,-0.008931,0.003040,0.000718,0.004377,-0.001652,0.005889,-0.006766,0.004620,
246,0.246,-0.005183,0.004034,0.007109,0.003851,-0.005928,0.006285,-0.008475,0.004943,
247,0.247,-0.006183,0.001311,0.004542,0.000267,0.002818,0.005653,-0.006813,0.003073,
248,0.248,-0.009233,0.003830,0.002308,-0.004839,-0.006027,-0.001235,-0.006334,0.002052,
249,0.249,-0.006533,0.003132,0.001601,0.002909,-0.005074,-0.000506,-0.003322,0.000350,
250,0.250,-0.004023,0.008016,-0.000115,-0.002364,-0.002092,0.000217,0.003085,-0.002703,
251,0.251,-0.000335,0.011051,-0.001835,0.000328,-0.001314,0.002274,0.013371,-0.002366,
252,0.252,-0.009687,0.009345,-0.002378,0.001133,-0.005624,0.002819,0.006419,-0.005924,
253,0.253,-0.006027,0.008841,-0.003597,0.006331,0.002748,-0.000360,0.010126,-0.004746,
254,0.254,-0.005093,0.003735,-0.003287,0.012715,0.001636,0.001200,0.004521,-0.001879,
255,0.255,-0.008231,0.012999,-0.001459,0.018604,0.004585,-0.001478,0.007550,0.001677,
256,0.256,-0.003752,-0.003425,-0.001145,0.013336,-0.003966,-0.005844,0.004813,0.002872,
257,0.257,-0.004700,-0.005633,0.003222,0.011301,-0.014378,-0.001925,0.012562,0.000861,
258,0.258,-0.010060,0.000450,0.004883,0.018236,-0.024105,-0.000538,0.024022,0.004438,
259,0.259,-0.013749,0.002299,0.001300,0.004192,-0.012853,0.000492,0.022452,0.000236,
260,0.260,-0.013386,0.000611,-0.001759,-0.014222,-0.008361,-0.000843,0.018343,0.007883,
261,0.261,-0.013044,0.002129,0.001117,-0.016537,0.001206,-0.001323,0.012059,0.002672,
262,0.262,-0.011702,-0.004820,0.000086,-0.014261,0.007393,0.003105,0.011035,0.003547,
263,0.263,-0.010705,-0.003626,0.000396,-0.008108,0.010541,-0.002801,-0.000482,0.001051,
264,0.264,-0.006174,-0.002576,-0.003336,-0.006182,0.015717,-0.014454,-0.005059,-0.004155,
265,0.265,-0.010627,-0.003550,0.001733,-0.014567,0.020215,-0.023047,-0.006419,0.000784,
266,0.266,-0.007977,-0.002677,-0.004698,-0.019080,0.012377,-0.012506,-0.017734,-0.002227,
267,0.267,-0.006690,-0.000134,-0.003870,-0.006508,0.013326,0.002599,-0.016193,0.001864,
268,0.268,-0.009137,-0.002329,-0.007600,0.005366,0.014116,0.012642,-0.017526,0.000370,
269,0.269,-0.004672,0.001237,0.000164,0.000850,0.004600,0.014394,-0.021239,0.000062,
270,0.270,-0.000717,0.002950,0.001159,0.002268,0.003372,0.019370,-0.018021,-0.001092,
271,0.271,-0.005058,-0.005823,-0.001563,-0.001373,0.000120,0.017754,-0.017012,0.004690,
272,0.272,0.002428,-0.009505,-0.000728,0.004309,0.001104,0.013608,-0.012444,0.007254,
273,0.273,0.001108,-0.010488,-0.004460,0.005401,-0.005361,0.019784,-0.008212,0.007948,
274,0.274,-0.000226,-0.013481,0.000444,-0.008544,-0.001155,0.009389,-0.002972,0.009998,
275,0.275,-0.003249,-0.008832,0.009915,-0.010489,-0.000490,0.002383,0.003453,0.004268,
276,0.276,-0.004418,-0.007913,0.002987,-0.004819,0.000177,0.011118,0.016298,0.004973,
277,0.277,-0.002549,0.000615,0.004180,-0.003050,-0.000327,0.007853,0.044199,0.002974,
278,0.278,-0.002215,-0.004908,0.003159,-0.001455,-0.002021,0.008836,0.048065,-0.003936,
279,0.279,-0.003061,-0.003843,0.000122,-0.005442,-0.009794,0.015258,0.029950,-0.003063,
280,0.280,-0.000524,0.006530,-0.000729,-0.006557,-0.008755,0.002434,0.013552,-0.005577,
281,0.281,0.004885,0.027391,0.003500,-0.003261,-0.007711,0.000632,-0.007249,-0.003350,
282,0.282,0.000820,0.006632,-0.000226,-0.000135,-0.004955,0.005802,-0.020934,-0.005349,
283,0.283,-0.005959,0.003974,0.007546,0.013965,-0.005744,0.007398,-0.038183,-0.005824,
284,0.284,0.001478,0.006384,0.008556,0.028233,-0.001954,-0.013365,-0.035996,-0.008669,
285,0.285,0.000127,0.008635,0.007709,0.015263,-0.003917,-0.046350,-0.033978,-0.009152,
286,0.286,0.002508,-0.001466,0.003488,0.013630,-0.003324,-0.041966,-0.020954,-0.016056,
287,0.287,0.008112,0.000436,0.001286,0.003020,0.003220,-0.022023,-0.012490,-0.008744,
288,0.288,0.004080,0.002176,-0.000736,0.004409,0.007563,-0.003931,-0.007918,-0.007871,
289,0.289,0.007329,-0.008430,-0.000236,0.000718,0.009876,0.005857,-0.000968,-0.003616,
290,0.290,0.005359,-0.015308,0.003807,-0.007042,0.005087,0.014656,0.002771,-0.005783,
291,0.291,-0.000165,-0.016443,0.001254,-0.010079,0.009409,0.011987,0.006010,-0.002206,
292,0.292,0.000262,-0.013180,0.000065,-0.010916,0.003082,0.009654,0.007051,0.000855,
293,0.293,0.001716,-0.007867,0.000385,-0.016821,0.005720,0.011881,0.002498,0.001378,
294,0.294,0.002005,-0.008641,0.004603,-0.005307,0.009540,0.013936,0.011987,0.000893,
295,0.295,0.006532,-0.009436,-0.004203,0.003144,0.007596,0.015819,0.015716,0.001246,
296,0.296,0.009373,0.002103,-0.000491,0.001614,0.003465,0.014150,0.016741,0.003293,
297,0.297,0.005128,0.007202,-0.003703,0.002949,0.008796,0.006561,0.015733,0.008379,
298,0.298,0.011726,0.011780,-0.006755,0.001736,0.003989,-0.000352,0.009318,0.004837,
299,0.299,0.010033,0.006524,-0.007298,-0.010653,0.002564,-0.002677,0.013568,0.002981,
300,0.300,0.010743,0.013424,-0.000870,0.006399,0.005704,-0.006316,0.000732,0.004682,
301,0.301,0.013170,0.004620,-0.000021,0.013638,0.005293,-0.000643,0.002630,0.004179,
302,0.302,0.013772,0.014934,-0.000695,0.011419,0.005904,0.000454,0.007742,0.006717,
303,0.303,0.010167,0.013581,-0.000014,0.005325,0.003809,0.006959,0.006249,0.000624,
304,0.304,0.001840,-0.002834,-0.003031,0.007203,0.001052,0.004491,0.010341,-0.001906,
305,0.305,0.005030,-0.009441,0.001044,0.002150,0.000153,-0.002381,0.006639,-0.004092,
306,0.306,0.008066,-0.007418,-0.002480,0.000637,-0.004974,-0.006855,0.007665,-0.002046,
307,0.307,0.010783,-0.001875,-0.002123,0.004702,-0.002656,-0.004208,0.008667,0.001010,
308,0.308,0.004891,-0.003608,-0.008500,-0.009176,-0.004575,-0.004780,0.004084,-0.000666,
309,0.309,0.007134,0.000925,-0.016870,-0.018486,-0.002782,-0.005369,-0.008791,-0.002174,
310,0.310,0.010750,0.010529,-0.004326,-0.026972,0.001399,-0.003622,-0.014406,0.000879,
311,0.311,0.007779,0.001691,0.004122,-0.010102,-0.001015,0.002850,-0.009366,-0.005538,
312,0.312,0.010749,-0.008664,-0.003466,-0.003560,-0.000555,0.000351,-0.010932,-0.002823,
313,0.313,0.010353,-0.004630,-0.004795,-0.005644,0.002436,-0.006546,-0.006907,-0.000287,
314,0.314,0.005392,0.001605,-0.005951,0.003606,-0.001687,-0.011083,-0.020809,0.000372,
315,0.315,0.003497,0.011915,0.004342,-0.001521,0.006027,-0.005157,-0.015258,-0.001683,
316,0.316,0.003132,0.013268,0.002981,0.006047,-0.001150,-0.005843,-0.013598,0.002527,
317,0.317,0.004982,0.007022,0.009192,0.001948,-0.003780,-0.000950,-0.006029,0.001994,
318,0.318,0.002610,0.001448,0.010148,0.003094,-0.002858,-0.001454,-0.002003,0.003504,
319,0.319,-0.002298,0.000427,0.002838,-0.014018,-0.002120,-0.000931,0.001688,0.001286,
320,0.320,0.001433,-0.004144,-0.001734,-0.026395,-0.005620,-0.000413,-0.001566,0.007709,
321,0.321,-0.001420,-0.004998,-0.000890,-0.015265,-0.001345,0.001795,-0.002609,0.006856,
322,0.322,0.005200,-0.016507,-0.001566,-0.005147,-0.004178,-0.001080,0.001911,0.006015,
323,0.323,-0.002377,-0.028356,-0.000891,0.011562,-0.003624,0.004667,0.004380,0.003825,
324,0.324,-0.001157,-0.017704,-0.007806,0.004918,-0.002408,0.002131,0.004980,0.000272,
325,0.325,0.001752,-0.010785,-0.006943,0.006888,-0.006261,0.002797,0.006930,-0.000239,
326,0.326,0.006193,-0.004535,0.002507,0.008681,-0.002668,-0.004995,0.011079,-0.000755,
327,0.327,0.001167,0.001040,-0.003749,0.003541,-0.002289,-0.016507,0.002215,-0.003303,
328,0.328,0.000712,0.002062,0.004000,0.004994,-0.006134,-0.033427,-0.006622,-0.002130,
329,0.329,0.001432,0.004755,0.002957,-0.007590,-0.005579,-0.040043,-0.005623,-0.004176,
330,0.330,-0.002413,0.007292,0.005620,-0.005964,-0.012470,-0.050206,-0.008691,-0.005204,
331,0.331,0.000337,0.003585,0.006417,0.007837,-0.013437,-0.022337,0.005320,-0.007593,
332,0.332,-0.001650,0.005648,0.002671,0.005912,-0.017957,0.005530,0.019496,-0.002543,
333,0.333,-0.003476,0.005148,0.000616,0.000784,-0.011996,0.030863,0.017609,-0.000539,
334,0.334,-0.002273,0.005649,-0.002439,-0.000772,-0.018912,0.040631,0.009128,-0.003606,
335,0.335,-0.005974,0.008179,0.005126,0.006120,-0.031071,0.037697,0.001501,-0.004138,
336,0.336,-0.008322,0.002092,-0.000144,0.009777,-0.019222,0.029508,0.000152,0.002609,
337,0.337,-0.005933,0.002931,0.004378,0.008682,-0.011613,0.031829,-0.008627,0.003427,
338,0.338,-0.010482,0.002237,0.010220,0.011630,-0.004690,0.016252,-0.011809,0.000878,
339,0.339,-0.003371,0.004255,0.007948,0.014244,0.011709,-0.006237,-0.017001,0.003075,
340,0.340,-0.013516,-0.005234,0.001470,0.011610,0.009501,-0.003351,-0.016121,0.003751,
341,0.341,-0.012003,-0.014905,0.007320,0.001531,0.011509,0.004781,-0.008324,0.004259,
342,0.342,-0.013032,-0.013741,0.003547,0.000083,0.013343,0.007144,-0.003064,-0.000971,
343,0.343,-0.011873,-0.005984,0.002828,0.008779,0.018389,0.009333,0.001526,0.002598,
344,0.344,-0.008692,-0.000753,0.001104,0.003105,0.013793,0.007295,0.002397,-0.000435,
345,0.345,-0.007711,0.005659,-0.004147,0.006084,0.017825,0.005426,0.004637,0.001260,
346,0.346,-0.006741,0.009862,-0.000631,0.006870,0.014068,0.003725,0.001131,-0.000263,
347,0.347,0.003355,0.021354,-0.003693,0.007658,0.008437,-0.013202,-0.001871,0.000914,
348,0.348,-0.006178,0.029796,-0.005393,0.003881,0.011432,-0.033517,-0.000156,-0.003823,
349,0.349,-0.009787,0.006776,-0.010148,-0.001086,0.010533,-0.030832,-0.006909,-0.002140,
350,0.350,-0.017474,0.003538,-0.007119,-0.010632,0.006239,-0.018498,-0.002327,0.000721,
351,0.351,-0.022628,-0.005285,-0.008820,-0.020318,0.002453,-0.011912,-0.003176,0.001220,
352,0.352,-0.014080,-0.002615,-0.012379,-0.029141,-0.002522,-0.005823,-0.003852,-0.004883,
353,0.353,-0.008410,-0.005015,-0.013567,-0.025946,-0.000898,-0.000242,-0.000286,-0.005746,
354,0.354,-0.007330,-0.002845,-0.007146,-0.014471,-0.001480,-0.018840,0.005464,-0.005093,
355,0.355,-0.004559,0.007259,-0.000728,-0.016026,-0.007311,-0.026098,0.015453,-0.001569,
356,0.356,-0.005352,0.005341,0.000118,-0.009120,-0.005193,-0.014923,0.016802,-0.005826,
357,0.357,-0.005974,0.003603,0.002308,-0.007967,-0.001726,-0.000696,0.017979,-0.002973,
358,0.358,-0.006594,0.005093,0.000274,-0.002408,-0.004847,0.019801,0.016935,-0.001472,
359,0.359,-0.000792,0.003708,-0.002773,0.000602,-0.003239,0.022549,0.009590,-0.000306,
360,0.360,-0.001422,-0.000025,0.000096,0.007007,0.002430,0.020226,0.006802,-0.002346,
361,0.361,-0.000712,-0.010350,0.002647,0.007816,0.006083,0.018080,-0.002752,0.003386,
362,0.362,0.008791,-0.009017,0.003001,0.011516,0.008039,0.016112,-0.011607,0.011145,
363,0.363,0.004755,-0.015316,0.005036,0.009478,0.007466,0.021752,-0.010636,0.010119,
364,0.364,0.005963,-0.018564,-0.000710,-0.000024,0.005709,0.023491,-0.007616,0.007402,
365,0.365,0.004957,-0.021641,0.003528,-0.004100,0.007167,0.028098,-0.003087,0.008234,
366,0.366,0.008010,-0.013205,0.007268,0.004683,0.002043,0.018500,-0.003964,-0.000241,
367,0.367,0.010727,-0.002906,0.010838,0.001458,0.005543,0.009750,-0.003299,0.002957,
368,0.368,0.009895,-0.001568,0.006636,-0.001588,0.001257,0.006580,0.004492,-0.006537,
369,0.369,0.007695,0.002145,0.001421,0.003004,0.000708,0.003579,0.001466,-0.005370,
370,0.370,0.008367,-0.003447,-0.000589,-0.002877,-0.001867,0.000918,0.015524,-0.008607,
371,0.371,0.006666,-0.002447,-0.001082,0.004108,-0.006145,-0.003271,0.029728,-0.009640,
372,0.372,0.007167,-0.001612,0.001811,0.006883,-0.002121,-0.008472,0.031578,-0.003234,
373,0.373,0.008689,0.006147,0.004362,0.006112,-0.004694,-0.009114,0.029868,-0.000714,
374,0.374,0.002591,0.005102,0.005565,0.009907,-0.007772,-0.013303,0.025287,-0.001409,
375,0.375,0.000047,0.004223,0.000005,0.009300,-0.008149,-0.010391,0.015648,-0.000757,
376,0.376,0.000718,-0.000060,0.000706,0.011091,-0.013258,-0.015084,0.004338,-0.001290,
377,0.377,0.007153,0.009898,-0.001294,0.007134,-0.013963,-0.005574,-0.018614,-0.000803,
378,0.378,0.004618,0.000240,-0.000752,0.003671,-0.015677,-0.006897,-0.028392,-0.001341,
379,0.379,0.006822,-0.003504,-0.000210,0.004935,-0.014010,0.004465,-0.031237,0.002860,
380,0.380,0.007502,-0.006738,-0.003730,0.002118,-0.011501,0.002991,-0.033906,0.008070,
381,0.381,0.006995,-0.003706,0.000536,-0.003569,-0.004584,0.001698,-0.036238,0.006010,
382,0.382,0.011064,0.002713,0.002257,-0.009413,0.006903,0.002984,-0.033990,0.004283,
383,0.383,0.009551,0.003554,0.003807,0.002177,0.005366,-0.000098,-0.023781,0.003752,
384,0.384,0.005331,-0.003389,0.001639,0.003977,0.009423,-0.005198,-0.021844,0.002207,
385,0.385,0.002474,-0.002543,-0.001208,0.008656,0.013135,-0.007759,-0.013316,0.004388,
386,0.386,0.001988,0.005249,0.002377,0.010121,0.016340,-0.010140,-0.011725,-0.000369,
387,0.387,0.002347,0.002221,0.003583,0.006521,0.011088,-0.010654,-0.015725,-0.004614,
388,0.388,0.000343,-0.000473,0.005637,0.005625,0.004661,-0.004078,0.003270,-0.001752,
389,0.389,0.002910,0.005456,0.004656,0.002707,0.005519,-0.001443,0.017012,-0.003294,
390,0.390,-0.002290,0.001757,-0.000552,0.000137,0.006230,0.005532,0.014667,-0.008384,
391,0.391,0.001469,0.008198,-0.004243,0.006202,-0.000176,0.004688,0.008092,-0.007727,
392,0.392,0.002194,0.003988,-0.004891,-0.000580,-0.002689,0.002140,0.002041,-0.003525,
393,0.393,-0.001980,0.006207,-0.004363,-0.006871,-0.003347,0.001442,-0.003516,0.001697,
394,0.394,0.002143,0.011139,0.002090,-0.004219,-0.002650,0.000747,-0.005202,0.002359,
395,0.395,0.002727,0.005433,-0.007350,-0.004784,0.001590,-0.000977,-0.003664,0.006565,
396,0.396,-0.002258,0.009194,-0.011050,-0.004000,0.002105,-0.002707,0.005986,0.002483,
397,0.397,-0.005719,0.005661,-0.003250,0.000316,-0.001437,-0.001227,0.007172,0.002975,
398,0.398,-0.001380,0.005202,-0.002206,0.003273,0.003645,-0.004309,0.006168,0.004137,
399,0.399,-0.004145,0.006941,-0.001339,-0.004429,0.002960,-0.004666,0.009236,-0.000625,
400,0.400,-0.007589,0.004777,-0.000986,-0.010625,0.003284,-0.004834,0.007408,0.001033,
401,0.401,-0.010027,0.004300,-0.001812,-0.013773,0.000219,-0.001280,0.001027,0.002701,
402,0.402,-0.002995,-0.001765,0.001935,-0.008459,0.001897,-0.003471,0.008859,0.002164,
403,0.403,-0.010157,-0.000875,0.002634,-0.001974,0.002379,-0.006309,0.003656,0.002642,
404,0.404,-0.003606,0.002893,-0.000380,-0.004444,0.002015,-0.003722,0.008271,0.001429,
405,0.405,-0.006019,-0.001964,0.003720,-0.000631,0.002328,-0.006046,0.009164,-0.001468,
406,0.406,-0.009614,-0.006142,0.001227,-0.001211,-0.001920,-0.006989,0.020711,-0.000467,
407,0.407,-0.010160,-0.006602,-0.001778,0.001944,0.002125,-0.011124,0.039346,-0.003704,
408,0.408,-0.008331,-0.014344,0.000301,-0.005554,0.003639,-0.007996,0.032095,-0.008459,
409,0.409,0.000596,-0.011092,-0.003211,0.006059,-0.003312,-0.007434,0.025523,-0.000186,
410,0.410,-0.002982,-0.005812,0.001059,0.010751,-0.000283,-0.005897,0.011329,-0.001217,
411,0.411,0.000373,0.002681,0.003979,0.006848,-0.004856,-0.000844,0.002040,-0.006480,
412,0.412,-0.002528,0.001691,0.003501,0.020851,-0.002326,0.004031,-0.006427,-0.003778,
413,0.413,0.002187,0.004764,0.001326,0.015360,-0.003008,0.009773,-0.001894,-0.001235,
414,0.414,-0.000210,0.002088,0.001691,0.010346,-0.007922,0.010441,-0.000581,-0.000558,
415,0.415,-0.002275,-0.000422,0.000696,0.011904,-0.007429,0.009732,-0.009416,0.001468,
416,0.416,-0.004171,-0.007339,-0.002492,0.002294,-0.003384,0.013897,-0.015041,0.003163,
417,0.417,0.004254,-0.013740,-0.004497,-0.011545,-0.009148,0.012112,-0.016101,0.000282,
418,0.418,0.003375,-0.009467,-0.001929,-0.024548,-0.008478,0.010470,-0.009707,0.001804,
419,0.419,0.008751,-0.005702,-0.000214,-0.026219,0.000817,0.012529,0.003141,0.001457,
420,0.420,0.004317,-0.006323,-0.000543,-0.021632,-0.002914,0.009513,0.004993,0.001791,
421,0.421,0.003607,-0.000515,0.002504,-0.011974,-0.001904,0.011911,0.010074,-0.003290,
422,0.422,0.004421,0.003271,-0.000374,0.001921,-0.000896,0.008556,0.005508,-0.003971,
423,0.423,0.005239,0.013989,-0.004594,0.000101,0.005531,0.007220,-0.007013,-0.000920,
424,0.424,0.005894,0.030972,-0.002895,-0.015059,0.001295,0.001328,-0.018873,-0.000406,
425,0.425,0.000784,0.010736,0.000663,-0.012967,0.001966,0.000352,-0.032765,-0.003955,
426,0.426,0.001596,0.008076,-0.005425,-0.003629,-0.000074,-0.000440,-0.019789,0.002990,
427,0.427,0.001218,0.010448,0.000492,0.004844,0.001600,-0.004113,-0.018169,0.001995,
428,0.428,0.004232,0.008275,0.001156,0.012451,0.005639,-0.013694,-0.016730,0.004718,
429,0.429,0.004879,0.002200,-0.000887,0.011079,-0.002160,-0.017861,-0.012751,0.002202,
430,0.430,0.002817,-0.003378,0.003331,0.009866,-0.001160,-0.019138,-0.009097,0.004431,
431,0.431,0.003289,-0.005077,0.001624,0.002039,-0.000153,-0.020243,-0.008147,0.000912,
432,0.432,0.004440,-0.003554,-0.001935,-0.013746,-0.000999,-0.015087,-0.019715,0.000433,
433,0.433,0.001354,-0.007615,-0.000753,-0.011603,0.003233,-0.016016,-0.018249,-0.002423,
434,0.434,0.000289,-0.011318,0.001267,-0.005569,-0.000491,-0.028960,-0.016953,-0.000872,
435,0.435,0.003951,-0.016905,0.003807,-0.007472,0.010165,-0.038350,-0.008209,0.000326,
436,0.436,0.004391,-0.009634,0.004817,-0.005811,0.008647,-0.026591,-0.002666,-0.000837,
437,0.437,0.002466,-0.005064,-0.000268,-0.007371,0.004589,-0.003659,0.004590,0.001038,
438,0.438,0.000705,-0.011006,-0.003833,-0.011486,-0.001675,0.019281,0.014908,-0.000634,
439,0.439,0.003159,-0.007316,-0.003346,-0.015277,0.001524,0.040028,0.016295,0.001748,
440,0.440,0.000877,-0.010903,0.000701,-0.023144,-0.001540,0.042684,0.010095,0.006000,
441,0.441,0.000265,-0.005193,0.003216,-0.007501,0.001145,0.040271,0.020464,-0.000912,
442,0.442,0.000497,-0.001505,-0.001034,0.012703,-0.001420,0.029069,0.030149,-0.003596,
443,0.443,-0.003159,-0.007977,-0.006306,0.009883,-0.000776,0.026996,0.018831,0.000665,
444,0.444,-0.006651,0.001450,0.000109,0.012135,-0.000124,0.021380,0.020332,0.001377,
445,0.445,-0.002364,0.015293,0.004331,0.023199,-0.005902,0.016279,0.016231,-0.003488,
446,0.446,-0.006383,-0.001487,-0.004142,0.021083,-0.008119,-0.000658,0.004854,0.002300,
447,0.447,-0.008888,0.000680,0.001424,0.015416,0.002518,-0.020979,-0.002797,0.001652,
448,0.448,-0.004641,-0.005452,0.004458,0.020395,0.004018,-0.023689,-0.012476,0.008105,
449,0.449,0.001792,-0.003646,0.003596,0.009635,0.002650,-0.011341,-0.016245,0.002215,
450,0.450,0.004327,-0.002004,-0.000646,0.002593,-0.003623,-0.009121,-0.015274,0.005956,
451,0.451,0.003650,-0.009650,0.001547,0.008737,0.001941,-0.023308,-0.008034,0.002424,
452,0.452,0.001600,-0.008331,-0.003370,0.005407,0.002931,-0.025148,-0.008915,0.001937,
453,0.453,0.002077,-0.004653,-0.002870,-0.001974,0.002059,-0.026815,-0.004703,-0.002105,
454,0.454,0.003720,0.000891,-0.002362,-0.004775,-0.003884,-0.040672,0.000522,-0.002590,
455,0.455,0.001117,0.001873,0.001186,-0.009080,-0.003235,-0.038794,0.008297,0.001655,
456,0.456,-0.003196,0.006405,-0.004909,-0.009832,-0.003930,-0.016772,0.005234,0.001165,
457,0.457,0.001953,0.007207,-0.000698,-0.005029,0.000280,0.010325,-0.001188,0.000679,
458,0.458,-0.003055,0.006489,-0.002918,-0.013425,0.001967,0.028473,-0.002023,0.001035,
459,0.459,-0.001477,0.004408,-0.003602,-0.030616,-0.001596,0.038358,-0.004217,0.002241,
460,0.460,-0.003303,0.006052,0.005856,-0.013462,0.001434,0.029635,0.005084,-0.003488,
461,0.461,-0.001930,0.005506,0.007210,0.011126,-0.000606,0.005005,0.016409,-0.006007,
462,0.462,-0.000908,0.001925,0.003485,0.020827,-0.000280,0.001865,0.017915,-0.003791,
463,0.463,0.000945,0.004940,0.002455,0.023611,0.002082,0.010742,0.016539,-0.003101,
464,0.464,-0.001777,0.011345,-0.000602,0.015411,0.001077,0.024537,0.017706,-0.007310,
465,0.465,-0.002995,0.010477,0.000241,0.012980,-0.003142,0.026987,0.014470,-0.005599,
466,0.466,-0.004232,0.004524,-0.004001,0.010744,-0.004821,0.029275,0.004962,-0.004054,
467,0.467,-0.004304,0.003815,-0.003338,0.004620,-0.005317,0.031382,-0.008933,-0.002856,
468,0.468,-0.008444,-0.003998,0.001549,0.002705,-0.003789,0.022156,-0.010806,-0.002497,
469,0.469,-0.010399,-0.007075,0.003225,-0.002422,-0.005974,0.013773,-0.012499,0.000063,
470,0.470,-0.013215,-0.011663,0.004899,-0.007016,-0.005617,0.009266,-0.004868,0.000431,
471,0.471,-0.015710,-0.007449,-0.001884,-0.019536,-0.003740,0.010675,-0.006201,-0.000552,
472,0.472,-0.017209,-0.006783,-0.001063,-0.034758,-0.000503,0.001942,-0.002443,0.002012,
473,0.473,-0.011784,-0.007456,-0.000236,-0.028651,-0.000811,-0.005782,-0.008002,0.003732,
474,0.474,-0.012962,0.002037,-0.002448,-0.011894,0.003446,-0.010959,0.003512,0.000040,
475,0.475,-0.008067,0.022875,0.001087,-0.000734,0.006350,-0.006309,0.008082,-0.005000,
476,0.476,-0.010453,0.008007,0.005309,0.005354,0.009925,-0.007060,0.004008,-0.001417,
477,0.477,-0.012513,0.005304,0.003601,0.007234,0.006901,-0.006279,0.000278,-0.003071,
478,0.478,-0.010021,0.007672,0.002076,0.008952,0.007254,-0.006864,-0.002944,-0.004717,
479,0.479,-0.008892,0.009859,0.001739,0.013551,0.004732,-0.009831,0.000099,-0.004175,
480,0.480,-0.011484,0.003729,-0.002148,0.009499,0.003046,-0.009256,0.004684,-0.001093,
481,0.481,-0.005460,0.005566,-0.003675,0.005768,0.006087,-0.009711,0.005558,0.002836,
482,0.482,-0.003158,-0.009678,0.000549,0.008968,0.005073,-0.006623,0.014030,-0.002886,
483,0.483,-0.002713,0.000447,-0.008246,-0.002567,0.003381,-0.006918,0.013010,0.005597,
484,0.484,-0.000926,-0.001444,-0.004525,-0.010203,-0.001697,-0.007226,0.007766,0.002402,
485,0.485,-0.006252,-0.003156,0.001059,-0.006148,-0.001029,-0.008886,-0.004402,0.003437,
486,0.486,-0.003622,0.007493,0.002074,0.000114,-0.002713,-0.009166,-0.016221,-0.001116,
487,0.487,0.001213,0.008844,0.006643,0.005719,-0.001021,-0.004817,-0.023801,0.004824,
488,0.488,-0.001232,0.010039,-0.001137,0.011021,0.000492,-0.006352,-0.030691,-0.000400,
489,0.489,0.006639,0.006830,0.001904,0.008404,0.001662,-0.003278,-0.024366,-0.002409,
490,0.490,0.005216,0.001584,-0.000801,0.012709,0.000459,-0.006618,-0.021089,0.000658,
491,0.491,-0.000435,0.002423,0.003425,0.014973,0.002304,-0.001379,-0.005305,-0.001007,
492,0.492,-0.003542,0.001562,-0.005033,0.010151,-0.002951,-0.004826,0.015045,0.000534,
493,0.493,-0.003083,-0.009934,-0.004015,0.000773,-0.000765,-0.006459,0.023200,-0.002489,
494,0.494,0.003483,-0.011600,-0.003001,-0.008786,-0.002800,-0.006944,0.020829,0.002271,
495,0.495,0.000413,-0.010055,-0.002147,-0.007537,-0.001116,-0.002216,0.018615,0.003989,
496,0.496,0.004306,-0.005959,0.000398,0.002859,-0.001641,-0.009117,0.012497,0.005696,
497,0.497,0.009227,0.000327,0.004124,0.006989,-0.003182,-0.006307,0.014313,0.000978,
498,0.498,0.005370,-0.002848,0.002105,0.003321,-0.004370,-0.013996,0.009194,0.005233,
499,0.499,-0.003203,-0.014319,-0.002113,0.006578,-0.000478,-0.008694,-0.001511,0.004756,
500,0.500,0.004313,-0.012772,0.000769,0.005592,0.002054,-0.000227,-0.005615,0.004272,
501,0.501,0.008813,-0.007340,0.000433,0.003749,0.003225,0.000916,-0.011571,0.003958,
502,0.502,0.009613,-0.008671,-0.004296,-0.000794,0.000181,0.008604,-0.012769,0.000935,
503,0.503,0.015834,-0.007476,-0.002603,-0.011950,0.003047,0.011543,-0.015991,0.002982,
504,0.504,0.016492,-0.006476,0.000275,-0.007379,-0.002722,0.002978,-0.006520,0.000457,
505,0.505,0.012604,-0.001224,0.006032,0.010735,-0.003590,0.006065,-0.015307,-0.001218,
506,0.506,0.008917,-0.000343,0.005368,0.013124,-0.008850,-0.003528,-0.009690,-0.000869,
507,0.507,0.009309,0.003947,-0.002400,0.006550,-0.002443,-0.012424,-0.012713,-0.003907,
508,0.508,0.018023,0.006201,0.000655,0.008612,-0.003290,-0.006893,-0.011859,0.000846,
509,0.509,0.014246,0.004231,-0.005762,0.014211,-0.002608,0.002588,-0.014386,0.002551,
510,0.510,0.013196,0.002599,-0.001521,0.009139,-0.001934,0.003790,-0.010659,0.000867,
511,0.511,0.010144,0.003168,0.005436,0.001557,-0.002450,0.002758,-0.005737,0.004417,
512,0.512,0.007456,0.000688,0.000891,-0.010897,-0.011260,-0.000349,-0.001472,0.001372,
513,0.513,0.008348,-0.001462,-0.005007,-0.022674,-0.010090,0.005983,0.004988,0.001033,
514,0.514,0.009096,0.004168,0.001939,-0.033281,-0.006883,-0.000041,0.010960,0.000019,
515,0.515,0.011225,0.002027,0.001106,-0.031901,-0.001653,0.008309,0.004077,0.004597,
516,0.516,0.010842,0.000052,0.003659,-0.018022,0.001033,0.004968,0.001416,-0.002330,
517,0.517,0.009298,0.005843,0.002993,-0.016164,-0.001522,0.003800,0.002296,-0.003175,
518,0.518,0.010994,0.002163,0.005038,-0.021251,0.002176,0.012107,0.000119,-0.007397,
519,0.519,0.008994,0.000164,0.003367,-0.022796,0.001480,0.010935,0.000801,-0.008067,
520,0.520,0.011247,0.001883,0.009816,-0.010300,-0.001585,0.003500,-0.004965,-0.006032,
521,0.521,0.009628,-0.004522,0.002048,-0.005263,-0.004479,0.004186,0.001964,-0.005517,
522,0.522,0.004646,-0.008717,-0.003192,0.002294,0.001258,-0.003761,0.004657,-0.003822,
523,0.523,0.008652,-0.006496,0.001387,0.006276,-0.002472,-0.015425,0.007196,-0.006354,
524,0.524,0.002533,-0.011375,-0.002833,0.009933,0.002429,-0.020147,0.014133,-0.004153,
525,0.525,0.005403,-0.001875,0.000897,0.004302,0.001923,-0.021649,0.020578,-0.003822,
526,0.526,0.009482,0.002222,-0.003987,0.005288,0.005987,-0.010450,0.021436,-0.008910,
527,0.527,0.010529,0.008489,-0.005650,0.006110,0.005485,-0.002964,0.017728,0.000384,
528,0.528,0.005159,0.021014,-0.006135,0.018933,0.006668,0.003852,0.007087,-0.003349,
529,0.529,0.006228,0.005794,0.001673,0.024505,0.011408,0.015085,0.002541,-0.002343,
530,0.530,0.003082,0.003765,0.000678,0.019410,0.007175,0.019555,0.012201,0.000689,
531,0.531,-0.000733,0.009341,-0.004558,0.020907,0.005480,0.020824,0.015952,0.003383,
532,0.532,0.002570,0.011033,-0.001834,0.016834,0.008012,0.024472,0.012762,0.004224,
533,0.533,0.006557,0.003407,-0.000973,0.008027,0.006819,0.014088,0.005523,0.004880,
534,0.534,0.003948,-0.003535,0.001231,0.002407,0.000386,-0.006784,0.002846,0.006895,
535,0.535,0.000499,0.000177,0.000568,-0.007121,0.001218,-0.033911,-0.001356,0.002647,
536,0.536,0.003476,-0.003045,-0.002466,-0.026124,0.003747,-0.037516,-0.008282,0.002117,
537,0.537,0.006113,-0.000005,0.000413,-0.039878,0.001538,-0.047367,-0.016742,0.000564,
538,0.538,0.002661,0.008441,-0.002114,-0.022671,0.005088,-0.044522,-0.015744,0.000202,
539,0.539,0.003602,0.009438,0.003981,-0.011555,0.000855,-0.014425,-0.012727,-0.001014,
540,0.540,0.002853,0.016691,0.003136,-0.009580,-0.002015,0.013484,-0.008183,-0.000031,
541,0.541,-0.001453,0.002625,-0.002112,-0.004058,-0.001497,0.024323,0.001287,-0.003279,
542,0.542,-0.007979,-0.011605,-0.000087,0.000957,-0.006564,0.034154,0.012628,-0.001282,
543,0.543,-0.004881,-0.002315,-0.001790,0.011548,-0.003003,0.037059,0.014174,-0.003184,
544,0.544,-0.010409,-0.004023,0.001076,0.004531,0.000057,-0.004004,0.012813,0.002007,
545,0.545,-0.010714,-0.008607,-0.001465,0.003266,0.000575,-0.056911,0.011574,0.002629,
546,0.546,-0.012389,-0.012680,-0.001810,0.006401,-0.002969,-0.049737,0.003718,-0.003852,
547,0.547,-0.010354,-0.008969,0.000216,0.011579,-0.006010,-0.017358,0.000589,-0.003061,
548,0.548,-0.007147,-0.001194,0.002069,0.008810,-0.002108,0.023661,-0.002188,-0.002441,
549,0.549,-0.012597,0.004032,0.001726,0.009587,-0.000576,0.050299,-0.004785,-0.001827,
550,0.550,-0.014532,-0.002441,0.000022,0.005797,-0.006654,0.064770,-0.011775,-0.002388,
551,0.551,-0.007850,0.006984,0.001364,0.010626,0.001141,0.060480,-0.012679,0.000427,
552,0.552,-0.006763,0.023352,0.001513,0.007500,0.004199,0.048750,-0.011895,0.000876,
553,0.553,-0.007220,0.007729,0.000810,-0.001383,0.003357,0.045311,-0.014150,-0.002235,
554,0.554,-0.014802,-0.010759,-0.002089,-0.007726,-0.000856,0.035609,-0.023510,0.004132,
555,0.555,-0.013614,-0.023143,-0.004647,-0.006796,0.002872,0.026906,-0.014769,0.004919,
556,0.556,-0.016175,-0.016576,0.000581,-0.007879,-0.007771,0.002289,-0.007050,-0.002930,
557,0.557,-0.018602,-0.018623,-0.000126,-0.001514,-0.009284,-0.034017,-0.008103,0.000060,
558,0.558,-0.013271,-0.016765,-0.000833,0.000958,-0.005191,-0.038689,-0.003570,0.002715,
559,0.559,-0.015222,-0.015074,-0.001375,-0.004334,0.001120,-0.025410,-0.004445,0.005201,
560,0.560,-0.013481,-0.010504,-0.001926,-0.012137,0.002197,-0.013460,-0.011393,0.001429,
561,0.561,-0.012961,-0.006440,-0.004502,-0.009150,0.003288,0.004740,-0.008693,0.003413,
562,0.562,-0.011452,-0.002691,0.002403,-0.002800,-0.001204,0.008060,-0.021549,0.001680,
563,0.563,-0.014530,-0.005881,-0.000674,0.003018,0.003100,0.011065,-0.019672,-0.005968,
564,0.564,-0.013399,-0.004859,-0.001548,0.008163,0.003847,0.013915,-0.014568,-0.002960,
565,0.565,-0.011618,0.001581,-0.000738,0.008743,0.001876,0.021316,-0.009958,0.003433,
566,0.566,-0.012047,-0.000942,-0.001442,0.006960,0.004988,0.010273,-0.005855,-0.000831,
567,0.567,-0.013178,0.002803,-0.002146,0.008589,0.003355,0.000253,0.008069,-0.000195,
568,0.568,-0.011962,0.003515,-0.001661,0.002789,0.002898,-0.005211,0.021144,0.000435,
569,0.569,-0.008234,0.005212,0.003565,0.008018,0.002600,-0.010187,0.019478,-0.001297,
570,0.570,-0.006732,0.002298,0.004221,0.011587,0.001449,-0.005551,0.020992,-0.000839,
571,0.571,-0.005406,0.010061,-0.000030,0.017394,-0.001055,-0.012451,0.011327,-0.001384,
572,0.572,-0.004428,0.006825,0.001613,0.012221,-0.002712,-0.016143,0.007568,0.000778,
573,0.573,-0.005838,0.009857,0.001064,0.010280,-0.003684,-0.017155,0.004305,0.001931,
574,0.574,-0.006413,0.010698,-0.005903,0.000903,-0.004312,-0.016145,0.007324,0.002241,
575,0.575,-0.004298,0.014940,-0.006957,-0.003087,-0.003587,-0.015303,0.002753,0.001206,
576,0.576,-0.001513,0.009720,-0.004283,0.000685,-0.001338,-0.012763,-0.001459,-0.000501,
577,0.577,0.001778,0.009058,-0.006849,-0.016374,-0.004330,-0.017985,-0.005151,-0.002379,
578,0.578,0.001181,0.008591,-0.001622,-0.009064,-0.001407,-0.014400,-0.000221,-0.000014,
579,0.579,0.002100,0.005754,0.003268,-0.011209,-0.001711,-0.013854,-0.004440,0.000324,
580,0.580,0.002844,0.001030,-0.003685,-0.021302,0.001544,-0.013307,-0.000366,-0.003396,
581,0.581,0.002911,0.000530,0.000880,-0.019376,0.001914,-0.009699,-0.003903,0.002360,
582,0.582,0.005003,0.002235,0.003409,-0.007466,-0.000607,-0.002697,-0.001696,0.001697,
583,0.583,0.003375,0.001735,-0.000315,0.000205,0.002618,0.000412,-0.004569,-0.000325,
584,0.584,0.002441,-0.000449,0.004590,0.004319,0.000587,-0.000388,0.001154,0.001371,
585,0.585,0.005905,0.002441,0.007640,0.003209,0.001590,-0.002912,0.003675,0.001883,
586,0.586,0.006164,0.005006,0.003587,0.002273,-0.000797,0.000803,0.012079,-0.000649,
587,0.587,0.004741,0.006042,0.001051,0.003374,0.002236,-0.005638,0.017565,-0.000309,
588,0.588,0.004179,0.003015,0.004111,0.002621,-0.002849,-0.004832,0.018463,-0.001489,
589,0.589,0.001424,0.000502,0.003781,0.005267,-0.004896,-0.010112,0.008029,0.001059,
590,0.590,0.006466,-0.002690,0.005651,0.003196,-0.000691,-0.005221,0.009277,-0.001311,
591,0.591,0.009998,-0.006559,0.003293,0.001298,-0.002416,-0.006925,0.005487,0.003774,
592,0.592,0.003383,-0.010102,0.002287,0.004484,-0.002958,-0.009825,0.022538,0.007340,
593,0.593,0.012675,-0.007052,-0.001935,-0.000609,0.000050,-0.002070,0.039803,0.009052,
594,0.594,0.011338,-0.005004,0.001115,0.001592,0.003909,-0.009886,0.037643,0.006194,
595,0.595,0.010182,-0.002454,-0.000558,0.000080,0.006428,-0.006915,0.027522,0.004698,
596,0.596,0.009052,-0.000747,0.003017,-0.000239,0.001361,-0.006185,0.010768,0.001674,
597,0.597,0.013529,0.004336,-0.002037,0.002485,0.003414,-0.002048,-0.004801,0.005583,
598,0.598,0.019385,0.015012,0.000017,0.003014,0.003934,-0.001428,-0.014960,-0.002182,
599,0.599,0.015624,0.016561,0.000556,0.007919,0.004429,-0.002124,-0.013111,0.001054,
600,0.600,0.012041,0.012533,0.004645,0.008560,0.004912,-0.000444,-0.011426,-0.001973,
601,0.601,0.010339,0.021356,0.004168,0.009194,0.007074,0.004782,-0.012951,0.000750,
602,0.602,0.010528,0.011911,0.003016,0.002561,0.000608,0.008458,-0.010919,-0.001599,
603,0.603,0.011073,0.001623,0.000852,0.008448,0.003438,0.013292,-0.003977,-0.004113,
604,0.604,0.009602,0.000292,0.000557,0.007898,-0.001681,0.021492,-0.002780,0.001151,
605,0.605,0.013882,-0.008503,0.006340,0.004470,0.000298,0.024604,-0.013087,-0.006597,
606,0.606,0.012261,-0.014082,0.000452,0.001559,-0.009214,0.017213,-0.014421,-0.007576,
607,0.607,0.005592,-0.013057,0.004207,-0.007101,-0.018913,0.008607,-0.013217,-0.002976,
608,0.608,0.006543,-0.015756,0.004926,-0.018280,-0.020157,-0.001874,-0.020980,-0.002093,
609,0.609,0.012597,-0.014896,0.003269,0.004879,-0.023419,0.004924,-0.017916,-0.004251,
610,0.610,0.010542,-0.026385,0.000435,0.014810,-0.018224,-0.001422,-0.015186,-0.004893,
611,0.611,0.007147,-0.021297,-0.002057,0.023703,-0.017425,-0.016362,-0.019392,-0.007903,
612,0.612,0.005621,-0.007415,-0.007104,0.015673,-0.007995,-0.018437,-0.021582,-0.004995,
613,0.613,0.008669,-0.005541,0.002236,0.013401,0.003289,-0.009193,-0.023607,-0.004455,
614,0.614,0.003094,-0.007224,-0.003987,0.015690,0.001719,-0.000812,-0.024096,-0.000199,
615,0.615,0.005482,-0.011781,-0.002934,0.009678,0.008605,-0.008506,-0.026930,0.000347,
616,0.616,0.004999,-0.013131,-0.005950,0.004174,0.009739,-0.001647,-0.019099,0.005120,
617,0.617,0.009428,0.005817,-0.006759,-0.014375,0.015268,0.012142,-0.001961,0.000922,
618,0.618,0.012508,0.030511,-0.005878,-0.026675,0.016223,0.025085,0.020438,0.008562,
619,0.619,0.004927,0.014094,-0.000588,-0.033227,0.009736,0.033458,0.023387,0.003349,
620,0.620,-0.000448,0.011197,0.010108,-0.031169,0.005445,0.028806,0.031548,0.004230,
621,0.621,0.000774,0.003053,0.002529,-0.029307,0.001661,0.032789,0.033939,0.003424,
622,0.622,0.001825,0.000654,-0.001504,-0.024238,-0.004840,0.023926,0.013657,0.001263,
623,0.623,0.001178,-0.010555,0.002250,-0.001248,-0.002370,0.016088,-0.000044,-0.000728,
624,0.624,0.000690,-0.008580,0.001264,0.008543,-0.004639,0.008773,-0.012394,-0.001197,
625,0.625,-0.002683,0.000663,-0.003956,0.023390,-0.005386,0.000278,-0.018978,-0.000650,
626,0.626,-0.008254,-0.011241,-0.008499,0.015220,-0.003753,-0.005325,-0.016946,-0.002136,
627,0.627,-0.010280,-0.003700,-0.005932,0.007898,0.003807,-0.008391,-0.011348,-0.004295,
628,0.628,-0.008077,0.003168,0.001028,0.005634,-0.001482,-0.007558,-0.013022,-0.003082,
629,0.629,-0.009613,0.004284,-0.007414,-0.004572,-0.000671,-0.020417,-0.005399,-0.000511,
630,0.630,-0.007776,0.003200,-0.004182,-0.006510,0.005222,-0.029719,0.001545,-0.004378,
631,0.631,-0.006125,0.006191,-0.003166,-0.001527,0.007399,-0.028024,0.002722,0.000381,
632,0.632,-0.012945,-0.004185,-0.002306,-0.003153,0.009406,-0.023433,0.017583,0.003455,
633,0.633,-0.011826,-0.005589,-0.003138,-0.015767,0.008879,-0.013758,0.007402,0.003996,
634,0.634,-0.014445,-0.009336,-0.002459,-0.017549,0.010556,-0.012513,0.027849,0.000470,
635,0.635,-0.013539,-0.003807,0.001092,-0.022210,0.003774,-0.004613,0.046964,0.002699,
636,0.636,-0.015683,0.001373,-0.004655,-0.020951,-0.000809,0.011290,0.049330,0.001543,
637,0.637,-0.014968,0.002179,0.000585,-0.009710,0.003398,0.013668,0.042742,-0.002655,
638,0.638,-0.016648,0.002977,0.004134,-0.008292,0.002708,0.015840,0.032599,0.006163,
639,0.639,-0.016146,0.005132,0.002423,-0.004358,0.004718,0.021525,0.008409,-0.000084,
640,0.640,-0.010422,0.003041,0.001902,-0.003314,0.004193,0.023285,-0.008007,-0.003288,
641,0.641,-0.008259,-0.000056,0.004418,-0.004478,0.001304,0.015722,-0.028816,-0.004294,
642,0.642,-0.013210,-0.001797,0.005587,-0.009880,-0.001248,0.008808,-0.042525,-0.001573,
643,0.643,-0.012779,0.002891,-0.000853,-0.016474,-0.008194,0.002570,-0.030187,-0.002403,
644,0.644,-0.015735,-0.000197,-0.003589,-0.019193,-0.023933,0.001566,-0.005511,0.001321,
645,0.645,-0.018370,0.003816,-0.001074,-0.012431,-0.030531,-0.003676,-0.008775,0.000645,
646,0.646,-0.018816,0.001245,-0.000421,-0.009879,-0.020375,-0.004524,-0.005980,0.003687,
647,0.647,-0.018606,0.000882,-0.002477,0.002843,0.000091,-0.008744,-0.003362,0.000812,
648,0.648,-0.012995,-0.000320,-0.000818,0.023181,0.008225,-0.008054,-0.005826,0.004357,
649,0.649,-0.012308,-0.000663,-0.001356,0.020327,0.010608,-0.007364,-0.008095,0.004677,
650,0.650,-0.013155,0.002537,-0.000880,0.012885,0.012831,-0.004305,-0.006111,0.004319,
651,0.651,-0.011317,0.006404,-0.002096,0.006133,0.014887,-0.004800,-0.004269,0.001763,
652,0.652,-0.007291,-0.001395,-0.006006,0.003932,0.009330,-0.004281,-0.005963,0.001404,
653,0.653,0.001300,0.001797,0.001755,0.001900,0.007657,-0.007305,-0.004430,-0.003019,
654,0.654,-0.000100,-0.003466,0.000713,-0.003349,0.000070,-0.006083,-0.000348,-0.004730,
655,0.655,-0.005910,-0.000783,0.003729,-0.005045,0.004132,-0.000264,0.005932,-0.005248,
656,0.656,-0.000892,0.001727,-0.002727,-0.012146,0.005311,-0.006118,0.006954,-0.005609,
657,0.657,-0.003830,0.001020,0.003164,-0.008583,-0.000289,-0.013004,0.007971,-0.005296,
658,0.658,-0.001531,0.003027,-0.002114,0.008349,0.002720,-0.026994,0.003400,0.000433,
659,0.659,0.000432,0.006049,-0.002816,0.015486,-0.000006,-0.028967,0.000850,-0.002123,
660,0.660,0.003749,0.007709,0.006628,0.017583,-0.002545,-0.015888,0.010833,0.000056,
661,0.661,0.007738,0.006163,0.005238,0.011397,-0.001867,-0.000648,0.006790,-0.000635,
662,0.662,0.009196,0.003957,0.001467,0.013165,-0.001187,0.013526,0.000545,-0.001151,
663,0.663,0.006431,0.001939,0.000406,0.014755,-0.000650,0.015340,-0.009742,-0.005226,
664,0.664,0.009261,0.007028,0.005617,0.007037,-0.002296,0.013626,-0.008349,0.000523,
665,0.665,0.008719,0.002136,-0.000841,0.010994,0.000285,0.009050,-0.007119,0.001201,
666,0.666,0.007513,0.005199,-0.000027,0.009702,0.002539,0.004975,-0.010286,0.003233,
667,0.667,0.012570,0.003520,-0.007000,0.001807,0.000555,0.006130,-0.007193,0.000184,
668,0.668,0.010202,0.008297,0.001432,0.008969,0.001619,0.007117,0.006906,-0.002703,
669,0.669,0.010719,0.004133,0.002422,0.019175,0.000655,0.008098,0.013057,-0.005238,
670,0.670,0.011070,0.007042,0.003420,0.015019,0.005100,0.001639,0.003818,-0.003050,
671,0.671,0.012609,0.008583,-0.001159,0.008680,0.001069,-0.000945,0.008950,-0.001881,
672,0.672,0.013998,0.011625,-0.000338,0.000832,0.002618,-0.004722,0.004440,-0.001556,
673,0.673,0.015073,0.008733,-0.001048,0.001804,0.002972,0.000129,-0.005153,-0.002583,
674,0.674,0.010241,0.006161,-0.001745,0.000937,-0.002586,-0.002973,-0.001396,-0.000900,
675,0.675,0.010669,0.002909,-0.003457,-0.003312,-0.004767,0.003398,-0.011703,-0.003963,
676,0.676,0.005363,-0.003546,-0.000603,-0.005513,-0.008299,0.000794,-0.013070,0.002452,
677,0.677,0.010212,-0.006293,0.006144,-0.007550,-0.009962,0.001406,-0.004301,-0.000269,
678,0.678,0.008487,-0.008851,0.005288,0.001918,-0.011621,0.003362,-0.003317,0.005635,
679,0.679,0.011350,-0.020332,0.009509,0.003284,-0.010070,0.006327,0.008154,0.003421,
680,0.680,0.009826,-0.015204,0.001037,0.009596,-0.006994,-0.001361,0.015735,0.001385,
681,0.681,0.008648,-0.016668,0.000011,0.006456,-0.007302,-0.000431,0.017077,-0.002850,
682,0.682,0.009012,-0.029130,0.003050,0.001285,-0.006257,-0.014558,0.005755,0.000020,
683,0.683,0.014792,-0.007130,0.005759,0.000511,-0.004547,-0.045262,-0.004855,-0.001500,
684,0.684,0.008918,0.001682,-0.000160,-0.005347,-0.001491,-0.067315,-0.003457,-0.001160,
685,0.685,0.008312,-0.012012,0.000511,-0.010499,0.002752,-0.055524,-0.007142,-0.004034,
686,0.686,0.013306,-0.004739,-0.003037,-0.005491,-0.000121,-0.022733,-0.003865,0.001726,
687,0.687,0.011711,-0.006925,0.006429,0.004073,0.003427,0.008053,-0.002781,0.005955,
688,0.688,0.012346,0.003233,-0.000510,0.008276,0.002248,0.028017,-0.005444,0.006638,
689,0.689,0.008932,-0.002340,0.003211,0.007235,0.003425,0.038853,-0.007963,0.004623,
690,0.690,0.004852,-0.004020,-0.004569,0.006379,0.004448,0.048679,-0.005765,0.001589,
691,0.691,0.010248,-0.002493,-0.007604,0.007552,0.002088,0.039916,0.004882,0.001093,
692,0.692,0.005510,-0.001137,0.000859,0.010404,0.003807,0.042658,0.015517,0.007876,
693,0.693,0.003993,0.005134,-0.002353,0.002770,0.001991,0.035398,0.022432,0.003329,
694,0.694,-0.001072,-0.000432,-0.003365,-0.012820,-0.000832,0.033211,0.026160,0.002502,
695,0.695,0.002673,-0.003461,-0.000665,-0.023852,0.003442,0.019001,0.015872,-0.002713,
696,0.696,0.002356,-0.002594,0.000182,-0.021675,-0.005313,0.013405,0.008972,0.003745,
697,0.697,0.006617,-0.005115,-0.000492,-0.008499,-0.004074,0.008326,-0.009941,0.004620,
698,0.698,0.001066,0.001833,0.000187,0.006883,-0.007222,0.003749,-0.018034,0.005322,
699,0.699,0.003472,0.004547,0.000706,-0.003105,-0.006152,0.002392,-0.025279,0.001805,
700,0.700,0.001643,0.003714,-0.008084,0.006345,-0.003399,0.001215,-0.027453,0.003521,
701,0.701,-0.003909,0.000003,-0.006894,0.001411,-0.000837,-0.006555,-0.025390,0.004050,
702,0.702,-0.003032,-0.006417,-0.003667,0.006107,-0.001502,-0.018039,-0.019787,-0.001676,
703,0.703,-0.001485,-0.000672,-0.002485,0.004881,0.011018,-0.033063,-0.011828,-0.003848,
704,0.704,-0.004841,0.000177,0.000578,-0.001954,0.015920,-0.031487,-0.003353,-0.000110,
705,0.705,-0.006345,0.003895,-0.002113,-0.005573,0.017610,-0.024479,0.004263,0.001936,
706,0.706,-0.007855,0.003222,0.002134,-0.008698,0.022846,-0.028125,0.011187,0.002463,
707,0.707,-0.009194,0.006271,-0.003093,-0.018087,0.012181,-0.033639,0.014891,-0.000391,
708,0.708,-0.006820,0.015082,-0.001041,-0.019192,0.001512,-0.022079,0.009290,0.000137,
709,0.709,-0.005474,0.006301,0.002009,-0.011330,0.005570,0.000974,0.004031,-0.004065,
710,0.710,-0.011070,0.003098,0.008454,-0.006008,0.006751,0.024026,0.006731,-0.006917,
711,0.711,-0.013458,0.002087,0.004249,-0.003228,-0.003576,0.026971,-0.002724,-0.000126,
712,0.712,-0.015522,0.002940,0.000557,0.001076,-0.007648,0.013343,-0.003891,-0.006540,
713,0.713,-0.020310,0.003791,-0.002985,0.003354,-0.006470,0.006159,-0.002840,-0.005672,
714,0.714,-0.019696,0.000070,0.000080,0.005450,-0.009692,0.004039,0.000215,-0.004979,
715,0.715,-0.015537,0.004981,0.002979,0.009734,-0.004457,0.014265,0.006644,0.001484,
716,0.716,-0.016979,-0.001952,-0.002756,0.003345,-0.005310,0.016205,0.009170,0.002349,
717,0.717,-0.014708,-0.006513,-0.000527,0.005908,-0.007856,0.017975,0.014379,-0.002874,
718,0.718,-0.012617,0.001276,-0.001187,0.002205,-0.010060,0.010443,0.006558,0.002045,
719,0.719,-0.009016,0.006536,0.000539,0.004269,-0.000758,0.009173,0.007543,0.003744,
720,0.720,-0.011183,0.012974,0.004629,0.006003,-0.001942,0.008064,0.001087,0.000880,
721,0.721,-0.015899,0.017222,0.007190,0.003160,0.001272,-0.004373,-0.010110,-0.001661,
722,0.722,-0.014197,0.019441,0.001121,0.007922,-0.001772,-0.009372,-0.008612,-0.003855,
723,0.723,-0.012505,0.020134,0.000306,0.014886,0.000933,-0.013863,0.001006,0.002570,
724,0.724,-0.014046,0.014388,-0.000337,0.010351,0.000090,-0.009723,0.014850,-0.000139,
725,0.725,-0.007139,0.013715,-0.002338,0.007832,-0.003627,-0.010842,0.024139,0.000711,
726,0.726,-0.010225,0.003061,-0.004006,0.004108,-0.001599,-0.002996,0.025809,0.001384,
727,0.727,-0.009436,-0.019941,0.000076,-0.006556,-0.002112,0.004328,0.021225,0.002064,
728,0.728,-0.003574,-0.036333,0.000615,-0.029563,-0.002632,-0.002051,0.019865,-0.002170,
729,0.729,0.003286,-0.033431,0.001834,-0.032748,-0.000099,0.003914,0.005988,-0.002674,
730,0.730,0.002365,-0.025283,0.000681,-0.017819,0.000231,0.010892,-0.010765,0.000885,
731,0.731,0.006507,0.001984,-0.002859,-0.009666,0.006648,0.015492,-0.026340,-0.002165,
732,0.732,0.005742,-0.001534,-0.001665,-0.002377,0.007483,0.007744,-0.028379,-0.001841,
733,0.733,-0.000785,0.001698,0.004770,-0.013556,0.003249,0.002521,-0.011664,-0.002865,
734,0.734,-0.000036,0.010525,0.000214,-0.011556,0.003919,-0.005936,-0.022864,-0.004570,
735,0.735,0.003570,0.002416,0.004453,0.005153,0.004592,-0.011535,-0.028993,0.000492,
736,0.736,-0.005847,0.004779,0.005145,-0.015191,0.000366,-0.012553,-0.019723,-0.004434,
737,0.737,-0.002241,0.002577,0.004476,-0.007099,0.005601,-0.015219,-0.011294,-0.003936,
738,0.738,0.000854,0.000538,0.001447,-0.009466,-0.003714,-0.014306,-0.012839,-0.003431,
739,0.739,0.010216,0.002407,-0.004966,-0.002849,-0.004898,-0.024214,-0.011516,-0.003943,
740,0.740,0.006373,0.000721,0.000972,0.007325,-0.017418,-0.025484,-0.007844,-0.005135,
741,0.741,0.005240,-0.006886,0.001666,0.005499,-0.025889,-0.011539,-0.006881,-0.003971,
742,0.742,0.008168,-0.005522,-0.001877,0.007240,-0.027428,-0.009629,-0.007955,-0.001456,
743,0.743,0.003480,-0.006699,0.003886,0.014879,-0.023390,0.002245,-0.003437,-0.003842,
744,0.744,0.007587,-0.007694,0.000163,0.010810,-0.014616,0.009869,-0.006034,-0.003530,
745,0.745,0.005260,-0.004625,-0.000511,0.009606,-0.009056,0.005809,0.000823,-0.000514,
746,0.746,0.010048,-0.001902,0.000004,0.010584,-0.001804,0.009517,0.007145,0.000633,
747,0.747,0.010432,0.000648,-0.004058,0.013580,0.008484,0.008476,0.004488,-0.002963,
748,0.748,0.014378,-0.003073,-0.000504,0.014400,0.012509,0.005388,0.006557,0.003933,
749,0.749,0.013754,0.000475,0.000683,0.006609,0.021264,0.006180,0.002887,0.004911,
750,0.750,0.012451,0.003504,-0.003201,0.005569,0.024449,0.003585,0.012238,0.000305,
751,0.751,0.016222,0.006362,0.004568,0.002839,0.019174,-0.001720,0.016198,-0.000578,
752,0.752,0.013571,0.001608,-0.003214,0.013971,0.016442,-0.012434,0.009865,0.004626,
753,0.753,0.012274,0.002086,-0.002202,0.006342,0.006939,-0.017058,0.017603,0.003905,
754,0.754,0.006584,-0.000817,-0.001362,0.010369,0.010643,-0.010183,0.024855,0.002169,
755,0.755,0.004283,0.000675,-0.003911,0.006603,0.007405,-0.003980,0.022153,0.001635,
756,0.756,0.002160,-0.006278,-0.003247,0.009771,0.004336,0.003781,0.016249,0.003134,
757,0.757,0.006303,-0.005274,0.004525,0.012763,-0.002113,0.006805,0.006304,0.001931,
758,0.758,0.004534,-0.000722,-0.002767,0.009991,-0.002980,0.011342,-0.003301,0.002247,
759,0.759,0.002934,0.003501,-0.001934,0.005693,-0.000802,0.007073,-0.014607,0.002567,
760,0.760,0.005907,-0.000236,-0.006178,-0.005857,0.001226,0.012281,-0.016097,0.007792,
761,0.761,0.008721,-0.000916,0.003782,-0.010977,-0.001815,0.007350,-0.028586,0.000838,
762,0.762,0.003589,0.000769,-0.003183,-0.006456,-0.001310,0.010371,-0.013335,0.001672,
763,0.763,0.001509,0.000242,-0.002034,-0.007865,-0.000784,0.007468,-0.003162,-0.006127,
764,0.764,0.003159,-0.001301,-0.001054,0.000871,-0.001054,-0.000354,0.006159,0.003335,
765,0.765,-0.000944,-0.001669,-0.008358,0.004031,0.000212,-0.003588,0.018000,0.002144,
766,0.766,-0.000469,-0.002874,-0.001964,-0.001270,-0.003952,-0.004582,0.019510,0.003156,
767,0.767,-0.002707,-0.005440,-0.006231,-0.009783,-0.004410,-0.005395,0.015423,0.004168,
768,0.768,-0.001543,-0.003097,-0.002537,-0.013050,-0.005924,-0.001151,0.011650,-0.000400,
769,0.769,-0.001897,-0.006159,0.002347,-0.012097,-0.003727,-0.008111,0.003808,0.009080,
770,0.770,-0.003596,-0.005837,0.000635,-0.013009,-0.005760,-0.005437,-0.001476,0.002819,
771,0.771,-0.005296,-0.001290,-0.004636,-0.018979,-0.003230,-0.006295,-0.006052,0.006033,
772,0.772,-0.001075,0.002908,-0.005343,-0.019725,-0.005614,-0.004087,-0.008585,0.002980,
773,0.773,-0.005322,0.002368,-0.001151,-0.009141,-0.008666,0.003686,-0.013788,-0.001594,
774,0.774,-0.003645,0.000808,0.001684,0.001445,-0.003598,0.006684,-0.011698,0.000941,
775,0.775,-0.004165,-0.002282,0.004168,0.002743,-0.001577,0.011190,-0.012102,-0.001264,
776,0.776,-0.005355,-0.008762,0.001072,-0.003562,0.004168,0.008558,-0.010290,0.000761,
777,0.777,-0.002497,-0.011532,-0.002877,-0.016128,-0.001080,0.009151,-0.008672,-0.003462,
778,0.778,-0.006737,-0.012465,0.000620,-0.021251,0.003831,0.008390,-0.001676,-0.007521,
779,0.779,-0.005062,-0.005611,0.006661,-0.010661,0.008073,0.006610,0.003612,-0.001768,
780,0.780,-0.009805,-0.002958,0.005766,-0.001088,0.006395,0.003661,-0.000946,0.000424,
781,0.781,-0.006772,0.004784,0.007919,0.012731,0.002856,0.002067,0.004971,-0.001597,
782,0.782,-0.008484,0.012030,0.004315,0.018282,0.004053,0.000811,-0.000297,-0.001076,
783,0.783,-0.003765,0.026068,0.000042,0.016553,0.003740,0.007172,0.003254,-0.001581,
784,0.784,-0.008020,0.024030,-0.002863,0.014983,-0.000466,0.011686,-0.000944,0.000972,
785,0.785,-0.006357,0.022173,-0.000372,0.005307,0.004802,0.003854,-0.001422,-0.003249,
786,0.786,-0.007907,0.020476,-0.000066,-0.008588,0.005512,0.000751,-0.003912,-0.006113,
787,0.787,-0.013017,0.009819,-0.004835,-0.017943,-0.003932,-0.000140,0.001227,-0.005602,
788,0.788,-0.009495,0.005763,-0.003170,-0.019679,-0.002552,-0.009650,0.011954,-0.005250,
789,0.789,-0.012574,0.002035,-0.007267,-0.024293,0.003719,-0.008504,0.013545,0.000347,
790,0.790,-0.008543,-0.001172,-0.001557,-0.028392,0.002710,-0.007528,0.020543,0.001037,
791,0.791,-0.008064,-0.000141,0.002142,-0.009475,0.005754,-0.004515,0.014327,0.000364,
792,0.792,-0.005900,-0.006567,0.007031,0.009604,0.003046,-0.003670,0.017570,0.002068,
793,0.793,-0.003057,-0.012475,0.002773,0.007194,0.000516,-0.004512,0.022835,0.001563,
794,0.794,-0.004108,-0.008728,0.001057,0.013755,0.001209,-0.009739,0.025580,0.003088,
795,0.795,0.001101,-0.005148,0.005773,0.023869,0.001918,-0.006167,0.023088,0.010034,
796,0.796,-0.001127,0.000631,0.001534,0.014547,0.005010,-0.000398,0.014704,0.004798,
797,0.797,-0.000475,0.005911,-0.000168,0.009454,0.006764,0.001819,0.002261,0.002096,
798,0.798,0.005249,0.010856,-0.002709,0.010971,-0.000943,0.002506,0.004034,-0.000441,
799,0.799,0.005900,0.006666,0.004229,0.012324,0.002341,0.003020,-0.006532,0.000247,
800,0.800,0.000977,0.001470,-0.003044,0.011149,-0.000628,-0.004585,-0.016095,0.000933,
801,0.801,0.005181,0.003552,0.001527,0.000825,0.002153,-0.007626,-0.024812,0.000419,
802,0.802,0.004658,0.003112,0.002397,0.007752,-0.000331,-0.006775,-0.025757,-0.000094,
803,0.803,0.003122,0.003696,0.006137,0.008937,0.003448,-0.002547,-0.030947,-0.007865,
804,0.804,0.000733,-0.004684,0.003780,0.006559,0.001304,-0.014891,-0.028706,-0.006843,
805,0.805,-0.000479,-0.010359,0.001763,0.007571,-0.002179,-0.009629,-0.031375,-0.007861,
806,0.806,-0.000834,-0.006557,0.002278,0.010614,-0.009062,-0.000295,-0.025418,-0.004813,
807,0.807,0.004895,-0.008521,-0.000586,0.011454,-0.013580,0.016155,-0.018446,-0.005663,
808,0.808,0.005731,-0.008979,0.000965,0.001987,-0.019466,0.022791,-0.019270,-0.004814,
809,0.809,0.000476,-0.017767,0.006065,0.003163,-0.018764,0.020790,-0.011472,-0.004142,
810,0.810,0.001147,-0.014051,0.005421,0.004161,-0.015187,0.011510,-0.010450,-0.002121,
811,0.811,0.000643,-0.003727,0.003755,0.009373,-0.024641,-0.000321,-0.004019,-0.000431,
812,0.812,-0.001037,-0.002364,0.000921,0.010185,-0.045436,0.001208,0.003753,-0.000934,
813,0.813,0.006750,0.001385,-0.001583,0.002368,-0.042555,-0.014007,0.017458,-0.001452,
814,0.814,0.005744,-0.001792,0.001491,0.003351,-0.017861,-0.032435,0.026774,0.000729,
815,0.815,0.013034,-0.000730,-0.000511,-0.005124,-0.001465,-0.034803,0.031852,0.001904,
816,0.816,0.004601,-0.003390,-0.006224,-0.006154,0.025590,-0.019234,0.042514,-0.001666,
817,0.817,0.005657,-0.002487,-0.008712,-0.003117,0.029130,0.003270,0.035563,-0.002017,
818,0.818,0.004689,-0.000232,-0.007975,-0.000393,0.032332,0.006168,0.016585,0.004398,
819,0.819,0.005590,0.004729,-0.001499,-0.011562,0.029448,-0.007478,-0.008158,0.001670,
820,0.820,0.004814,0.010534,0.001099,-0.000869,0.032153,-0.024676,-0.018018,0.005888,
821,0.821,0.013349,0.008384,0.000476,0.003270,0.019795,-0.009071,-0.032951,0.003668,
822,0.822,0.012419,0.007756,0.002548,0.002157,0.017590,0.017530,-0.030291,0.004325,
823,0.823,0.009466,0.006127,0.008347,-0.012653,0.015556,0.028387,-0.042689,0.004804,
824,0.824,0.008722,0.007877,0.004682,-0.018636,0.009970,0.044823,-0.040533,0.004268,
825,0.825,0.013070,0.007423,0.008279,-0.016675,0.008283,0.036047,-0.018054,-0.002525,
826,0.826,0.007944,0.011703,0.006631,-0.018272,0.000670,0.033362,0.002748,0.002012,
827,0.827,0.011623,0.004134,0.001437,-0.010566,-0.003387,0.026097,0.010866,-0.000553,
828,0.828,0.006010,-0.005300,0.002159,-0.003545,-0.002205,0.014941,0.023215,0.004664,
829,0.829,0.005470,-0.001537,-0.000843,0.000272,-0.001179,0.012918,0.021022,-0.003148,
830,0.830,0.009160,0.008826,0.000899,-0.005201,0.001878,0.011057,0.027119,-0.006219,
831,0.831,0.002362,-0.009241,-0.002617,0.004387,-0.006574,-0.000771,0.014091,0.002210,
832,0.832,0.001661,-0.001931,-0.007666,0.005678,-0.007575,-0.011419,0.005622,-0.005603,
833,0.833,0.000961,-0.004082,0.001660,0.000196,-0.006550,-0.015473,0.004083,-0.000386,
834,0.834,0.000431,-0.002004,-0.004580,0.003314,-0.011103,-0.009196,-0.005567,0.000425,
835,0.835,-0.001450,-0.003821,-0.003547,0.009786,-0.008554,-0.012400,-0.004391,0.002934,
836,0.836,-0.002989,-0.005489,-0.006564,0.010644,-0.003293,-0.013408,0.001189,-0.002340,
837,0.837,0.000044,0.002132,-0.000112,0.009966,0.001631,-0.006971,0.002209,-0.001698,
838,0.838,-0.000312,-0.004813,0.000759,0.007928,0.004683,-0.006108,0.008645,-0.000039,
839,0.839,-0.005231,-0.008550,-0.006154,0.006242,0.004192,-0.005395,0.021509,0.005165,
840,0.840,-0.003054,-0.000788,-0.006991,0.006766,0.002700,-0.011767,0.027095,0.000232,
841,0.841,-0.004599,-0.003853,0.000804,0.008321,0.000529,-0.009180,0.025413,0.007141,
842,0.842,-0.006135,-0.008444,0.001834,0.006185,0.000894,-0.008482,0.011528,0.004403,
843,0.843,-0.004467,-0.005935,-0.000855,-0.000138,-0.001625,-0.004924,0.002198,-0.001538,
844,0.844,-0.010405,-0.000728,-0.006769,-0.012208,-0.006174,-0.005425,-0.013062,0.002168,
845,0.845,-0.009422,-0.002783,-0.003043,-0.010414,-0.010382,-0.003731,-0.011071,0.002828,
846,0.846,-0.007088,-0.001112,-0.006593,-0.014891,-0.012048,-0.000163,-0.016695,0.002313,
847,0.847,-0.006282,-0.001638,-0.004915,-0.016184,-0.007286,0.000199,-0.021841,-0.001760,
848,0.848,-0.011909,-0.003168,-0.000881,-0.022401,-0.008950,-0.000112,-0.014327,-0.002279,
849,0.849,-0.006543,-0.002848,-0.002424,-0.009861,-0.008418,0.000926,-0.010369,0.004639,
850,0.850,-0.009994,-0.009302,-0.008541,-0.004782,-0.001629,-0.002280,-0.004234,0.001588,
851,0.851,-0.011596,-0.015762,-0.006035,-0.003264,-0.008035,-0.001943,-0.001144,-0.006876,
852,0.852,-0.005080,-0.011569,0.002391,0.000777,-0.012245,-0.003804,0.006013,-0.005865,
853,0.853,-0.002462,-0.009407,0.003376,-0.000426,-0.017479,-0.004820,0.006761,-0.000617,
854,0.854,-0.007640,-0.007423,0.006394,-0.001470,-0.006818,-0.005168,-0.001110,-0.005175,
855,0.855,-0.001156,0.000816,0.005513,0.003740,-0.005291,-0.006550,-0.008456,-0.000933,
856,0.856,-0.003636,0.013285,-0.000443,-0.000871,0.001637,-0.002676,-0.005820,-0.006158,
857,0.857,-0.001388,0.038622,-0.001163,0.006874,0.007874,0.004913,-0.008411,-0.001225,
858,0.858,-0.002021,0.042138,-0.003241,0.009880,0.008862,0.003867,-0.006255,0.000502,
859,0.859,-0.002511,0.025691,0.000942,0.014382,0.011874,0.012268,-0.001384,-0.002333,
860,0.860,-0.003004,0.016850,-0.001986,0.013453,0.012697,0.008986,0.002823,-0.010068,
861,0.861,0.001741,0.003099,0.000500,0.018626,0.015210,0.005857,0.004491,0.000311,
862,0.862,0.001231,-0.004213,0.005531,0.015013,0.018900,0.001204,0.003966,0.001735,
863,0.863,0.001728,-0.010859,0.006153,0.010733,0.019550,0.003659,0.010878,0.000621,
864,0.864,-0.003019,-0.008860,-0.003381,0.010190,0.015343,-0.001667,0.009850,0.003904,
865,0.865,-0.007259,-0.014463,-0.004798,0.002371,0.011324,0.000273,0.016258,0.000940,
866,0.866,-0.005579,-0.012792,-0.011121,-0.014768,0.007817,-0.009274,0.015390,0.000183,
867,0.867,-0.005102,-0.008251,0.001331,0.002414,0.003647,-0.024545,0.014691,0.002802,
868,0.868,-0.008182,-0.006916,-0.003812,-0.017952,-0.000372,-0.022535,0.006876,0.000690,
869,0.869,-0.007042,-0.003207,0.000688,-0.037135,0.003194,-0.005806,-0.000453,0.001459,
870,0.870,-0.006759,-0.000012,0.004691,-0.024839,0.002001,-0.003647,-0.003230,0.002048,
871,0.871,-0.002931,-0.007325,0.000920,-0.018264,-0.000890,0.006454,-0.002457,0.005014,
872,0.872,-0.006538,-0.004649,-0.002343,-0.024358,-0.002793,0.012008,-0.007772,0.001537,
873,0.873,-0.009638,-0.003836,0.007093,-0.007609,-0.004533,0.013688,-0.018485,0.001948,
874,0.874,-0.003265,-0.003203,0.005880,-0.001024,-0.000179,0.012166,-0.023110,0.003208,
875,0.875,-0.004171,-0.002581,-0.001935,-0.003063,-0.000737,0.013520,-0.019085,0.002264,
876,0.876,-0.005082,0.000407,-0.000950,-0.001209,-0.001286,0.009790,-0.015357,0.000635,
877,0.877,-0.001422,-0.001334,0.001725,-0.006268,-0.007439,0.006566,-0.012117,0.001038,
878,0.878,0.003428,0.001163,-0.000847,-0.004734,-0.006668,0.007565,-0.009046,0.002945,
879,0.879,0.003883,0.008050,0.004353,-0.000667,-0.004528,-0.004640,-0.004462,0.005862,
880,0.880,0.004349,0.007001,0.009211,0.010675,-0.012371,-0.002973,0.003303,0.005546,
881,0.881,0.004806,-0.001470,0.006126,0.012207,-0.007201,-0.001474,0.002237,0.003198,
882,0.882,0.008975,0.001723,0.002027,0.021862,-0.009985,-0.005569,-0.002398,0.006940,
883,0.883,0.006045,-0.003531,0.000463,0.030671,-0.009218,0.000647,-0.005006,0.003910,
884,0.884,0.005485,0.002880,-0.005660,0.036264,-0.008611,-0.002600,-0.007249,0.001896,
885,0.885,0.002398,0.005395,-0.003161,0.029002,-0.008012,-0.005668,-0.012164,0.004442,
886,0.886,0.004392,0.006048,-0.006902,0.022589,-0.005046,-0.010249,-0.007905,0.004115,
887,0.887,0.004697,0.003989,-0.003373,0.011428,-0.007982,-0.023115,-0.002594,0.008511,
888,0.888,0.009243,0.002281,0.002367,0.000767,-0.011592,-0.028694,-0.000482,0.003258,
889,0.889,0.009739,-0.000619,0.001688,-0.008878,-0.009447,-0.016840,-0.003401,0.002574,
890,0.890,0.003308,0.000884,0.001006,-0.015136,-0.004766,0.006184,0.005520,0.004259,
891,0.891,0.009239,0.000546,-0.000680,-0.030018,-0.000590,0.016008,0.011906,-0.002190,
892,0.892,0.004010,0.003440,0.001010,-0.032055,-0.002340,0.013162,0.015243,-0.004748,
893,0.893,0.008929,-0.002291,-0.000509,-0.022768,-0.001892,0.010497,0.012308,-0.002576,
894,0.894,0.009463,-0.001421,0.000676,-0.010977,-0.004147,0.003277,0.007837,-0.004644,
895,0.895,0.006623,-0.000704,0.006266,-0.000391,-0.002177,0.001132,0.017408,-0.004175,
896,0.896,0.005145,-0.005577,0.009993,0.003617,-0.001902,-0.000846,0.023778,-0.005909,
897,0.897,0.005529,0.002735,0.002222,0.012386,-0.003658,0.001069,0.022865,-0.001222,
898,0.898,0.012015,0.001741,0.007481,0.017978,0.000014,0.009580,0.028203,-0.007034,
899,0.899,0.009371,0.000733,0.002943,0.014964,-0.000378,0.008126,0.019854,-0.004899,
900,0.900,0.006916,0.003460,0.003828,0.012318,0.002435,0.004139,0.012186,-0.004285,
901,0.901,0.004798,0.002638,0.000130,0.011539,0.007455,0.005399,0.002828,-0.007405,
902,0.902,0.006901,0.006406,-0.001868,0.012285,0.010953,0.011056,-0.000774,-0.011549,
903,0.903,0.005299,0.002917,-0.000140,0.008816,0.007857,0.014178,-0.003878,-0.009091,
904,0.904,-0.001017,-0.000063,-0.002975,0.010578,0.011849,0.007812,-0.000710,-0.008829,
905,0.905,-0.000222,-0.004390,0.000949,0.002330,0.014856,0.014129,-0.002428,-0.008240,
906,0.906,0.000752,-0.003807,0.001494,0.000667,0.014323,0.021968,-0.001438,-0.010352,
907,0.907,0.012375,-0.001186,-0.000668,0.008489,0.014647,0.031508,-0.003840,-0.008586,
908,0.908,0.004044,0.000080,0.004106,0.016333,0.008205,0.025324,-0.004384,-0.009021,
909,0.909,0.002630,0.006551,0.001104,0.004899,0.010900,0.019812,-0.000704,-0.012158,
910,0.910,0.004093,0.005720,-0.006465,-0.002632,0.010051,0.008375,-0.000090,-0.014118,
911,0.911,0.003019,0.011659,-0.001177,-0.009512,-0.001459,0.003860,0.006442,-0.010320,
912,0.912,0.002115,0.000161,0.001572,-0.023317,-0.023464,-0.005726,0.004009,-0.006852,
913,0.913,-0.003025,-0.008292,0.004154,-0.017659,-0.014669,-0.006877,0.007849,-0.009981,
914,0.914,-0.003775,-0.006765,0.001995,-0.009141,-0.006558,-0.012424,0.004393,-0.011250,
915,0.915,-0.001156,-0.002692,-0.000008,0.004777,-0.004204,-0.015448,0.002761,-0.006255,
916,0.916,-0.001747,-0.006417,0.001717,0.002948,0.002382,-0.016291,-0.001241,-0.007006,
917,0.917,0.000357,-0.007430,0.002260,0.004647,0.012524,-0.015454,-0.001706,-0.004041,
918,0.918,0.003477,-0.000134,-0.000228,-0.009203,0.014367,-0.007019,-0.004738,0.001127,
919,0.919,0.004052,0.013930,-0.003228,-0.018506,0.009276,-0.008048,-0.004390,-0.000978,
920,0.920,-0.001645,0.003803,-0.002846,-0.023588,0.010780,-0.009060,-0.006920,0.005888,
921,0.921,-0.005319,0.001965,-0.008552,-0.022057,0.006714,-0.004488,-0.006547,0.006668,
922,0.922,-0.008835,0.007063,-0.009352,-0.015103,-0.002092,-0.010386,-0.002766,0.004066,
923,0.923,-0.007124,0.011656,-0.007115,-0.013908,-0.005316,-0.006639,-0.006903,0.004678,
924,0.924,-0.003058,0.010330,-0.006392,-0.006104,-0.012595,-0.011531,-0.013238,0.005295,
925,0.925,-0.009825,0.004092,-0.004652,-0.015560,-0.002269,-0.014572,-0.008900,0.005746,
926,0.926,-0.010685,-0.006201,-0.004105,-0.001674,0.001803,-0.016265,-0.003537,0.013299,
927,0.927,-0.014953,-0.004825,0.003721,0.007632,-0.006991,-0.014752,0.007217,0.016288,
928,0.928,-0.018718,-0.008533,0.004775,0.009318,-0.003765,-0.013584,0.021187,0.018937,
929,0.929,-0.008119,-0.014100,0.001761,0.004749,0.005720,-0.011575,0.038014,0.014658,
930,0.930,-0.003618,-0.015101,0.000958,0.008813,0.002022,-0.007390,0.031492,0.015294,
931,0.931,-0.005049,-0.012382,0.001850,0.007650,0.003056,-0.002181,0.021406,0.010347,
932,0.932,-0.003960,-0.004590,0.004091,0.004461,-0.002149,-0.004249,0.000986,0.008622,
933,0.933,-0.007276,0.002686,0.004790,0.005481,0.002454,-0.001249,-0.023667,0.010283,
934,0.934,-0.008408,0.003534,-0.004672,0.006303,0.005045,-0.002974,-0.040043,0.005521,
935,0.935,-0.005844,0.007763,-0.000599,0.010517,-0.003363,-0.000466,-0.048824,0.007193,
936,0.936,-0.006832,0.004052,-0.001748,0.012696,-0.002286,-0.000161,-0.046107,0.007694,
937,0.937,-0.009186,0.006093,-0.004936,0.007758,-0.003249,-0.000544,-0.058437,0.004132,
938,0.938,-0.011390,0.001871,-0.003892,0.003475,-0.002358,-0.000254,-0.038121,0.001931,
939,0.939,-0.012083,-0.003378,-0.006562,0.000532,-0.004855,0.004270,-0.029989,0.004802,
940,0.940,-0.009405,-0.014041,0.004636,0.008244,-0.002601,-0.001505,-0.022711,0.003786,
941,0.941,-0.002861,-0.012524,0.003144,0.011389,-0.000513,-0.003719,-0.016104,0.001428,
942,0.942,-0.005794,-0.008465,0.004516,0.027029,-0.003486,-0.005787,-0.005962,0.001778,
943,0.943,-0.008570,-0.012186,-0.001729,0.029129,-0.001730,-0.001613,-0.007828,0.001118,
944,0.944,-0.006620,-0.004416,0.003859,0.014832,0.000875,0.003566,-0.006164,0.000468,
945,0.945,-0.000456,0.005035,0.000820,-0.002002,0.002123,0.005538,0.004446,0.000665,
946,0.946,-0.003272,0.006197,0.001683,-0.022369,-0.001695,0.007168,0.014026,0.002737,
947,0.947,-0.004235,0.013954,-0.004220,-0.030564,0.001922,-0.001685,0.012762,0.001596,
948,0.948,-0.008080,0.004458,-0.007932,-0.033008,0.008916,-0.002921,0.015869,0.001476,
949,0.949,-0.004141,0.000721,0.001388,-0.026480,0.007968,-0.003987,0.018788,0.003558,
950,0.950,0.004358,-0.014169,0.000207,-0.020456,0.003468,-0.000999,0.017785,0.001928,
951,0.951,0.000330,-0.016199,0.003432,-0.022383,0.000999,-0.001908,0.025399,-0.001733,
952,0.952,-0.010297,-0.010618,0.000391,-0.010605,0.011060,0.009195,0.013728,-0.002172,
953,0.953,-0.011965,-0.008924,0.006825,0.009277,-0.001363,0.010663,-0.003357,0.000939,
954,0.954,-0.011088,-0.004344,0.002606,0.017286,-0.006356,0.009248,-0.005714,-0.001863,
955,0.955,-0.003624,-0.002994,-0.001120,0.004796,-0.007813,0.005458,0.004299,0.001771,
956,0.956,-0.004957,0.008296,-0.000436,-0.006518,-0.003708,0.002178,0.006023,0.004055,
957,0.957,0.006916,0.025159,-0.003475,-0.008674,-0.004863,0.003134,0.010968,-0.000591,
958,0.958,0.004953,0.022934,-0.000593,-0.014365,-0.008067,0.007656,0.024718,0.001196,
959,0.959,0.003154,0.008693,-0.001095,0.000778,-0.005035,0.010138,0.022739,-0.007507,
960,0.960,0.004232,0.006807,0.001943,-0.005411,-0.000490,0.001630,0.017547,-0.006232,
961,0.961,0.005165,0.001708,0.002279,-0.014791,-0.006447,0.011909,0.003566,-0.005124,
962,0.962,0.008129,0.000167,0.004143,-0.006388,-0.002767,0.007806,0.016489,-0.006037,
963,0.963,0.010940,-0.001219,0.006512,0.001168,-0.002147,0.011478,0.031606,-0.006777,
964,0.964,0.002251,0.007553,0.001437,0.005162,-0.006420,0.019211,0.025398,-0.010902,
965,0.965,0.007614,0.006513,-0.002118,0.011369,-0.008140,0.016113,0.023410,-0.005561,
966,0.966,0.004370,-0.002977,-0.002627,0.010324,-0.001397,0.015224,0.031741,-0.006133,
967,0.967,0.003344,-0.001816,-0.002118,0.011317,-0.002266,0.009272,0.017739,-0.006537,
968,0.968,0.009108,0.001370,0.001429,0.008586,0.003641,0.005517,0.008328,-0.006936,
969,0.969,0.008295,0.002370,0.001088,0.007706,-0.003315,0.001940,-0.013756,-0.007342,
970,0.970,0.011729,-0.002200,-0.001794,0.006983,0.001230,-0.006372,-0.028722,-0.004198,
971,0.971,0.013317,-0.001373,0.001757,0.008968,0.002046,-0.009585,-0.047905,-0.003758,
972,0.972,0.013740,-0.002060,-0.000450,0.009438,0.001331,-0.004282,-0.045594,-0.004676,
973,0.973,0.013165,0.001491,-0.003330,0.012290,-0.000739,-0.003359,-0.047855,-0.003575,
974,0.974,0.012788,-0.001564,-0.002322,0.008736,-0.001279,-0.004160,-0.041814,0.000228,
975,0.975,0.019196,0.001303,-0.004005,0.012985,0.006292,-0.004826,-0.017692,-0.000887,
976,0.976,0.014623,0.004849,0.000400,0.010143,-0.001016,-0.005500,-0.014540,0.003062,
977,0.977,0.015482,0.002639,0.003283,0.004426,0.003517,-0.003837,0.000284,0.001598,
978,0.978,0.010266,0.004646,-0.002460,-0.000791,-0.000746,0.001388,0.002940,-0.001404,
979,0.979,0.006758,0.001061,-0.003118,-0.008560,0.001437,-0.005058,0.010169,0.001520,
980,0.980,0.008525,-0.004052,-0.003778,-0.013798,-0.004994,-0.002529,0.012295,-0.002680,
981,0.981,0.004558,0.002344,0.005706,0.000254,-0.000775,-0.001858,0.006114,0.000221,
982,0.982,0.003139,-0.001926,0.009781,0.014479,-0.007722,-0.006759,0.007893,-0.001297,
983,0.983,0.009354,0.001764,0.003530,0.001473,-0.001320,-0.010980,0.012886,-0.003492,
984,0.984,-0.001676,-0.006035,-0.008987,-0.006959,-0.005563,-0.009258,0.008249,-0.005516,
985,0.985,-0.000002,-0.007046,-0.003914,-0.008438,0.004403,-0.003480,0.001251,-0.000436,
986,0.986,0.004219,-0.006188,-0.002386,-0.004321,0.008441,-0.005648,0.002392,0.000249,
987,0.987,0.005572,-0.000259,-0.003743,-0.003079,0.009600,-0.007620,0.001345,0.001945,
988,0.988,0.004734,-0.002427,-0.002567,-0.006219,0.001797,-0.009205,0.000302,0.002445,
989,0.989,0.007963,-0.001720,-0.001558,-0.007158,0.002793,-0.001453,-0.002426,-0.001115,
990,0.990,0.005453,-0.005917,0.003684,0.003247,-0.003656,0.014424,0.005352,-0.001468,
991,0.991,0.003123,-0.004204,0.006391,0.010272,0.000553,0.016734,-0.001911,-0.000311,
992,0.992,0.005542,-0.000626,0.008930,0.009165,-0.001655,0.014779,0.004569,-0.001351,
993,0.993,0.007787,0.006341,0.006733,0.014828,-0.000987,0.001788,0.007185,0.000986,
994,0.994,0.008512,0.005343,0.000299,0.005430,-0.005225,0.000112,0.014231,-0.002769,
995,0.995,0.005866,0.002667,-0.000545,0.009213,0.000017,-0.004444,0.018919,0.000244,
996,0.996,0.004582,0.005234,-0.001233,0.010281,0.002052,-0.005785,0.023274,0.003079,
997,0.997,0.001770,-0.001674,-0.003271,0.003037,-0.002179,-0.002074,0.025603,0.001194,
998,0.998,0.000818,-0.010079,0.000941,-0.005378,-0.003871,-0.001081,0.027750,0.000158,
999,0.999,0.001385,-0.009017,-0.004323,-0.008516,-0.003364,-0.000078,0.019565,0.004534,
1000,1.000,-0.000757,-0.007969,-0.002307,-0.011461,-0.010302,-0.000923,0.007154,0.000466,
1001,1.001,0.003195,-0.007102,-0.004021,-0.001019,-0.017579,-0.003468,0.002154,0.002992,
1002,1.002,-0.003515,-0.014868,-0.004543,0.014343,-0.011154,0.001778,-0.008469,0.003314,
1003,1.003,-0.000265,-0.003335,0.003201,0.028678,0.000011,0.001109,-0.018080,0.001260,
1004,1.004,0.002644,0.019695,-0.002417,0.023216,0.010656,0.001621,-0.016865,0.001588,
1005,1.005,-0.003080,0.022910,-0.001435,0.004731,0.014713,-0.000060,-0.017824,-0.000109,
1006,1.006,-0.016584,0.004131,-0.002496,-0.003627,0.019444,-0.006655,-0.020606,-0.000290,
1007,1.007,-0.012673,0.007016,0.000168,-0.015901,0.023172,-0.005139,-0.017448,0.002752,
1008,1.008,-0.008935,0.004325,0.006046,-0.009227,0.022159,-0.012062,-0.012752,0.004603,
1009,1.009,-0.017044,0.001966,-0.002439,-0.023349,0.023172,-0.021497,-0.013454,0.002908,
1010,1.010,-0.011303,-0.000247,-0.001445,-0.032545,0.012857,-0.015209,-0.011126,0.000528,
1011,1.011,-0.014206,0.001773,0.001572,-0.027368,0.008813,-0.009613,-0.006105,0.001190,
1012,1.012,-0.009509,-0.007551,0.002389,-0.007313,0.005101,-0.004369,0.003448,0.000502,
1013,1.013,-0.008537,-0.002495,0.001511,-0.004493,-0.000467,0.002031,0.007593,0.004210,
1014,1.014,-0.010617,-0.004019,-0.000722,-0.006753,-0.003497,-0.000543,0.006471,0.001660,
1015,1.015,-0.012555,0.000041,-0.001440,-0.008852,-0.000775,-0.001242,0.007507,0.000454,
1016,1.016,-0.015516,0.003764,0.002754,-0.002643,-0.004989,0.006533,-0.006197,-0.001586,
1017,1.017,-0.014953,0.000537,-0.001357,-0.000645,-0.002769,0.009559,-0.011763,0.002630,
1018,1.018,-0.015408,-0.000485,0.000117,0.007925,-0.007652,0.010370,-0.013458,0.000918,
1019,1.019,-0.015709,0.002216,-0.002965,0.009558,-0.003391,-0.002542,-0.014989,-0.000615,
1020,1.020,-0.016034,-0.003731,-0.000125,0.011020,-0.002858,-0.030523,-0.013656,-0.000965,
1021,1.021,-0.015020,-0.005982,-0.001186,0.009907,-0.007559,-0.034472,-0.002328,0.000208,
1022,1.022,-0.017404,0.001789,0.003339,-0.000354,-0.011757,-0.001705,-0.006902,0.000538,
1023,1.023,-0.012363,-0.001258,-0.006171,-0.004352,-0.007662,0.020256,0.008343,0.003738,
1024,1.024,-0.011730,-0.005827,-0.002156,-0.013096,-0.004073,0.024121,0.010415,0.006607,
1025,1.025,-0.010104,-0.006680,-0.001018,-0.000534,-0.001838,0.042198,0.016056,0.004064,
1026,1.026,-0.007293,0.004816,0.002146,0.011336,-0.005694,0.032380,0.014446,0.009300,
1027,1.027,-0.004840,0.009901,-0.005165,0.018973,-0.013449,0.029507,0.016059,-0.000683,
1028,1.028,-0.006120,0.011429,-0.006049,0.017629,-0.014426,0.021385,0.036968,0.003374,
1029,1.029,-0.002341,0.007390,-0.001861,0.013903,-0.009154,0.019014,0.034194,-0.000355,
1030,1.030,0.000078,0.016199,-0.004101,0.008306,-0.006421,0.012400,0.015174,0.005231,
1031,1.031,-0.003090,0.012987,0.000766,0.003038,0.001384,0.006295,0.002905,-0.000019,
1032,1.032,-0.001194,0.005720,0.004968,0.000316,-0.003839,-0.006751,-0.012600,-0.004592,
1033,1.033,-0.002355,-0.008313,-0.000303,-0.009177,-0.001119,-0.005091,-0.014596,-0.008836,
1034,1.034,0.002742,-0.010336,-0.002362,-0.012939,-0.000257,-0.006644,-0.016438,-0.011042,
1035,1.035,0.004783,-0.008469,0.003344,-0.009777,0.003472,-0.021902,-0.007962,-0.009024,
1036,1.036,0.005294,-0.020306,0.003980,-0.019296,0.001459,-0.048488,-0.003385,-0.004812,
1037,1.037,0.006823,-0.018773,0.001915,-0.018169,0.000971,-0.059332,0.014739,-0.006519,
1038,1.038,0.004971,-0.017408,-0.001161,-0.019252,0.002678,-0.049514,0.012387,-0.000780,
1039,1.039,0.005313,-0.011142,0.002864,-0.012046,0.004208,-0.022446,0.010223,0.004447,
1040,1.040,0.005489,-0.007915,-0.000718,0.000072,-0.001877,0.002925,-0.008185,-0.000476,
1041,1.041,0.010061,-0.004858,-0.001081,0.005088,-0.001041,0.025925,-0.015436,0.002546,
1042,1.042,0.009389,0.005470,-0.000765,0.006543,0.001144,0.034716,-0.030996,0.002007,
1043,1.043,0.003982,0.001420,-0.002648,0.005116,-0.000909,0.031992,-0.028960,-0.000555,
1044,1.044,0.004492,0.007690,0.002580,0.001319,-0.003981,0.024699,-0.019664,0.004495,
1045,1.045,0.006025,0.006689,0.000360,0.009000,0.000053,0.031280,-0.014589,-0.006200,
1046,1.046,0.006375,-0.007008,0.002372,0.001633,0.002557,0.025171,-0.006987,-0.007756,
1047,1.047,0.005718,-0.008859,0.001836,-0.012518,0.005568,0.012131,0.002619,-0.006428,
1048,1.048,0.008616,-0.000400,0.002324,-0.014660,0.004347,0.000280,-0.001150,-0.012714,
1049,1.049,0.007300,0.001117,0.005861,-0.016642,0.001782,0.004847,0.015892,-0.009534,
1050,1.050,0.004635,0.005183,0.000773,-0.018458,0.000764,-0.004793,0.038178,-0.006516,
1051,1.051,0.008416,0.001470,0.011422,0.001378,0.004491,-0.003599,0.023239,-0.000116,
1052,1.052,0.006790,0.007068,0.009889,0.014964,0.004148,-0.004600,0.009478,-0.006064,
1053,1.053,0.007041,0.022805,0.002946,0.012491,-0.002295,-0.011863,-0.007850,-0.008285,
1054,1.054,0.006624,0.020623,0.006677,0.014592,0.000385,-0.009140,-0.023498,-0.000535,
1055,1.055,0.005550,0.014568,0.003463,0.020571,-0.002185,-0.006591,-0.029675,-0.003604,
1056,1.056,0.007194,0.012731,0.000424,0.014861,0.001494,-0.018085,-0.031617,-0.000925,
1057,1.057,0.002068,0.007655,-0.008030,0.002890,0.003479,-0.029922,-0.030004,-0.003490,
1058,1.058,0.006942,0.009185,-0.011239,-0.001820,0.002916,-0.019266,-0.019417,0.000205,
1059,1.059,0.008632,0.002244,-0.003951,-0.003321,-0.001212,-0.012337,-0.012541,0.003741,
1060,1.060,0.008127,0.003414,-0.003088,-0.002294,0.000245,0.001528,0.003820,0.004227,
1061,1.061,0.002407,0.000192,-0.000539,-0.010225,0.000502,0.014556,0.005966,0.005899,
1062,1.062,-0.001272,-0.011327,0.000160,-0.003071,0.001598,0.016264,0.024359,0.005370,
1063,1.063,0.002351,-0.006795,0.000851,0.001385,-0.001042,0.005636,0.036658,0.010422,
1064,1.064,0.001923,-0.008166,-0.004891,-0.011590,-0.000124,-0.009552,0.038816,0.005493,
1065,1.065,0.008452,-0.004463,0.005095,-0.024738,0.000797,-0.003413,0.020322,0.007156,
1066,1.066,0.000785,-0.005483,0.003754,-0.009618,-0.001151,0.002215,0.017883,0.011189,
1067,1.067,0.003960,-0.004486,-0.002482,-0.011753,-0.003609,0.010719,0.011202,0.004403,
1068,1.068,0.008672,0.009537,-0.003483,-0.013695,-0.003340,0.015332,0.005034,0.005228,
1069,1.069,0.007992,0.019669,0.001781,0.008240,-0.006457,0.002859,-0.008066,0.006054,
1070,1.070,0.007497,-0.008252,0.000950,0.011058,-0.002624,-0.002193,-0.009827,0.003829,
1071,1.071,0.008378,-0.012156,-0.003268,0.002892,-0.005218,-0.009808,-0.014451,0.005842,
1072,1.072,0.002850,-0.008618,0.000470,0.005216,-0.007472,-0.008443,-0.018551,0.001600,
1073,1.073,0.006800,-0.005420,0.002520,0.002977,-0.005483,-0.007199,-0.014865,0.002093,
1074,1.074,-0.000733,-0.002560,0.004216,0.009047,-0.001281,-0.014895,-0.009300,0.001574,
1075,1.075,0.000540,-0.010707,-0.002202,0.003453,-0.000807,-0.015829,-0.010331,-0.000627,
1076,1.076,-0.000032,-0.008357,0.000346,0.005139,-0.005572,-0.007290,-0.007636,-0.001814,
1077,1.077,-0.000593,-0.014972,-0.000317,0.006647,-0.001373,-0.001661,-0.006806,-0.001464,
1078,1.078,-0.004018,-0.008901,-0.000977,0.005289,0.000290,0.005645,-0.001589,-0.006705,
1079,1.079,-0.004387,-0.003350,-0.000458,0.006451,-0.002265,0.006492,0.004806,-0.002972,
1080,1.080,-0.003570,-0.001694,-0.003310,0.005405,0.001947,0.010713,0.010671,-0.000932,
1081,1.081,-0.000380,-0.003240,-0.000757,0.010631,0.002446,0.014414,0.020567,0.003314,
1082,1.082,0.000444,0.000816,-0.003775,0.009785,0.003973,0.010834,0.024533,-0.003104,
1083,1.083,-0.001436,-0.002910,0.001828,0.007252,0.005162,0.013839,0.013102,-0.000559,
1084,1.084,0.002777,0.000291,0.002528,0.000324,0.003153,0.012115,0.008450,0.004694,
1085,1.085,0.001581,-0.000758,0.000508,0.006752,0.000633,0.004297,-0.004139,0.002673,
1086,1.086,-0.001147,0.001923,-0.001163,0.010978,0.000989,-0.010627,-0.002492,0.001001,
1087,1.087,0.001195,0.004413,0.002930,0.004063,-0.001356,-0.004583,-0.016389,0.001536,
1088,1.088,-0.000362,0.000620,0.000426,-0.002319,0.000530,0.004695,-0.014526,-0.000982,
1089,1.089,-0.000395,-0.000096,0.000774,-0.001437,0.004445,0.013152,-0.006076,0.002096,
1090,1.090,-0.001116,0.004097,0.000458,0.003849,0.007347,0.008620,0.001519,0.006879,
1091,1.091,0.001024,0.004583,0.000805,0.001878,0.008883,0.010036,0.000131,-0.000010,
1092,1.092,0.005200,0.006112,-0.004430,0.000258,0.009243,0.001325,0.006369,0.000876,
1093,1.093,0.001426,0.001914,-0.003737,0.006773,0.003684,-0.001812,0.000773,0.005153,
1094,1.094,0.001191,0.004819,-0.004405,-0.000926,0.008952,-0.000732,0.003815,0.003000,
1095,1.095,-0.001589,0.001292,0.003890,0.006428,0.006946,-0.003406,0.016012,-0.001865,
1096,1.096,-0.000993,0.002506,-0.001687,0.000098,0.003932,-0.002546,0.014354,-0.002343,
1097,1.097,-0.004983,0.002849,-0.000664,-0.000629,-0.004832,-0.006274,0.003741,0.000561,
1098,1.098,-0.001887,-0.002888,-0.003355,0.000162,-0.018668,-0.005618,-0.005857,-0.001952,
1099,1.099,-0.007436,-0.002046,-0.002491,-0.000411,-0.024214,-0.008688,-0.009568,-0.004127,
1100,1.100,-0.001992,-0.004237,-0.000256,0.000204,-0.015723,-0.010394,-0.008557,-0.002917,
1101,1.101,-0.008233,0.000696,-0.000908,-0.001381,-0.001812,-0.002626,-0.003286,-0.006428,
1102,1.102,-0.003826,0.000205,-0.005103,-0.001759,0.011269,-0.005847,0.001300,-0.001304,
1103,1.103,-0.005868,-0.000290,-0.001015,-0.001265,0.016398,-0.000603,0.005554,-0.004811,
1104,1.104,-0.007758,0.003287,-0.001505,-0.003129,0.017979,0.000249,0.003391,-0.003078,
1105,1.105,-0.001875,0.005509,-0.000301,-0.005490,0.013987,0.001110,0.002775,-0.002509,
1106,1.106,-0.001081,-0.000060,0.002597,-0.000080,0.015247,0.006384,0.001171,-0.000943,
1107,1.107,-0.007576,0.004519,0.000239,0.009885,0.013810,0.007075,-0.001109,-0.005966,
1108,1.108,-0.002593,0.006726,-0.005507,0.009350,0.006122,0.003564,-0.006274,-0.002875,
1109,1.109,-0.006754,0.000303,0.000421,0.004593,0.005205,0.004140,0.000243,-0.004008,
1110,1.110,-0.003831,0.006225,-0.003283,-0.004747,0.004456,0.000179,-0.000513,-0.001432,
1111,1.111,-0.007352,0.011468,0.003174,0.005017,0.008783,-0.004437,0.006518,0.000302,
1112,1.112,-0.002265,0.002158,0.005742,0.011369,0.000428,-0.003786,0.000191,0.002029,
1113,1.113,-0.005826,0.000962,0.006451,0.012474,-0.002682,-0.012459,0.006209,0.005114,
1114,1.114,-0.005340,-0.004620,0.001582,0.001068,-0.003596,-0.008662,0.013253,0.002275,
1115,1.115,-0.005888,0.004848,-0.002617,0.005708,-0.002642,-0.003045,0.010618,-0.001926,
1116,1.116,-0.003409,0.001117,0.002673,-0.006734,-0.011993,-0.001991,0.002887,0.002160,
1117,1.117,-0.006530,0.000093,-0.000847,-0.015118,-0.008163,-0.002805,0.001919,0.000658,
1118,1.118,-0.006277,-0.005154,0.002224,-0.010478,-0.011271,0.003157,-0.000750,0.004890,
1119,1.119,-0.009934,-0.004299,0.006314,-0.014453,-0.008128,0.006917,-0.004944,-0.000346,
1120,1.120,-0.011239,-0.003445,0.001614,-0.013136,-0.007197,0.000524,-0.007099,-0.001022,
1121,1.121,-0.004949,0.001787,0.002148,-0.016232,-0.013043,-0.008930,-0.010590,0.002015,
1122,1.122,-0.005937,-0.000251,0.006233,-0.023418,-0.013655,-0.012640,-0.011027,0.001497,
1123,1.123,-0.003558,0.003986,0.004740,-0.024178,-0.002935,-0.009412,-0.010453,-0.002069,
1124,1.124,-0.005940,-0.001260,0.005093,-0.011275,-0.001351,-0.004157,-0.009870,-0.002423,
1125,1.125,-0.004099,0.003649,0.003067,0.005506,0.000050,0.006173,-0.007588,-0.007180,
1126,1.126,-0.005990,0.005347,-0.002678,0.003333,-0.001086,0.007543,-0.001075,-0.005515,
1127,1.127,-0.007889,0.009419,0.001576,0.013507,-0.004270,0.016349,0.011178,-0.006048,
1128,1.128,-0.002360,0.006885,-0.003642,0.015418,0.003032,0.015353,0.016311,-0.004555,
1129,1.129,-0.001918,-0.000046,0.001272,0.003589,0.002211,0.014357,0.017888,-0.003397,
1130,1.130,-0.002847,-0.015764,-0.002959,-0.007078,-0.000315,0.011664,0.013895,-0.000548,
1131,1.131,-0.001415,-0.017950,0.002298,-0.005721,-0.000985,0.010830,0.007703,0.001295,
1132,1.132,-0.003367,-0.015910,-0.002590,-0.006921,-0.007420,0.007117,0.002182,0.000263,
1133,1.133,-0.002110,0.000842,0.004349,0.003359,-0.001513,0.009152,-0.002998,0.002606,
1134,1.134,0.003707,-0.001353,-0.000211,0.012956,0.002184,0.003402,-0.009395,-0.000470,
1135,1.135,0.004288,0.008813,-0.007984,-0.003517,-0.001403,-0.000323,-0.013619,-0.000153,
1136,1.136,0.006219,0.025580,-0.008986,-0.010190,-0.000939,-0.008113,-0.017357,0.005568,
1137,1.137,0.001046,0.005313,0.005061,0.003929,0.001895,-0.007121,-0.008078,0.001295,
1138,1.138,0.003811,0.008046,-0.001019,0.009402,0.002355,-0.007981,-0.001864,-0.003996,
1139,1.139,0.008774,0.000799,0.004569,0.007593,0.007392,-0.008828,0.001292,-0.006069,
1140,1.140,0.000714,-0.014753,0.002886,0.002898,0.003787,-0.012540,-0.006036,0.002174,
1141,1.141,-0.004813,-0.020828,-0.001680,-0.004158,0.004240,-0.006114,-0.010645,-0.003457,
1142,1.142,-0.004249,-0.018952,0.002396,-0.000540,0.003670,-0.005277,-0.006447,-0.002500,
1143,1.143,-0.003684,-0.010481,0.006120,0.000395,0.003094,0.006219,-0.005793,0.003882,
1144,1.144,-0.003298,-0.011995,0.002903,-0.004937,0.001836,0.014663,-0.006483,0.004679,
1145,1.145,0.002846,-0.002348,0.001883,-0.019087,0.002941,0.016175,-0.004786,0.005302,
1146,1.146,0.006792,-0.006069,-0.004544,-0.017158,0.002521,0.012108,0.004022,0.008811,
1147,1.147,0.010241,0.011003,-0.005394,-0.004247,0.000734,0.005843,0.022987,0.005724,
1148,1.148,0.002187,0.003724,-0.013855,-0.002669,0.002316,0.000252,0.036694,0.006189,
1149,1.149,0.000909,-0.007453,-0.008280,0.001784,-0.002026,-0.005005,0.019430,-0.001641,
1150,1.150,-0.000193,-0.001380,-0.007262,0.000318,-0.009077,-0.005871,0.008257,-0.002704,
1151,1.151,0.003794,0.004181,-0.004553,-0.008584,-0.006477,-0.008428,-0.005957,-0.003773,
1152,1.152,0.005756,0.002480,-0.002013,-0.016459,-0.010811,-0.012165,-0.018996,-0.001110,
1153,1.153,0.000624,-0.002098,-0.001340,-0.019594,-0.011576,-0.011509,-0.034247,-0.008929,
1154,1.154,-0.000105,-0.000761,-0.004895,-0.009374,-0.015220,-0.014580,-0.040390,0.000508,
1155,1.155,0.001379,-0.001966,0.002034,-0.005414,-0.014810,-0.005808,-0.027446,-0.003238,
1156,1.156,0.004731,-0.002998,0.001195,-0.004330,-0.015418,-0.022251,-0.008930,-0.002243,
1157,1.157,0.003360,0.000029,0.000349,-0.010017,-0.015012,-0.024483,-0.001753,-0.003280,
1158,1.158,0.007071,-0.000837,-0.000333,0.001377,-0.012916,-0.030605,0.004746,0.005154,
1159,1.159,0.005378,0.001677,-0.005248,0.008883,-0.009132,-0.028772,0.010747,-0.000443,
1160,1.160,0.004024,0.003843,-0.003564,0.021289,-0.009749,-0.030486,0.005098,0.002588,
1161,1.161,0.005055,0.003144,-0.003063,0.022856,-0.006816,-0.013600,0.013524,-0.003858,
1162,1.162,0.005917,0.000063,-0.004597,0.015121,-0.004896,0.011074,0.005908,-0.001332,
1163,1.163,0.007464,0.005260,-0.001559,0.019064,-0.007555,0.027471,0.021138,-0.000670,
1164,1.164,0.011052,0.010125,-0.005451,0.007617,-0.012922,0.024574,0.015083,-0.001358,
1165,1.165,0.006705,0.009566,0.002323,0.015119,-0.003055,0.027264,0.009543,0.001671,
1166,1.166,0.003726,0.005471,0.003322,0.010955,-0.001809,0.019979,0.007880,0.005722,
1167,1.167,0.008376,0.004938,0.000262,-0.000495,0.004344,0.017768,0.003321,-0.000031,
1168,1.168,0.006603,0.007106,-0.000595,-0.020565,0.009841,0.007602,-0.009202,0.002173,
1169,1.169,0.007037,0.003168,0.005321,-0.012530,0.017041,0.013171,-0.017677,0.004207,
1170,1.170,-0.000816,-0.000424,0.003114,-0.000251,0.017821,0.011463,-0.019212,0.003702,
1171,1.171,-0.001889,-0.005539,0.002420,-0.002510,0.013530,0.009927,-0.012288,0.000837,
1172,1.172,0.007541,0.003739,0.011887,0.015897,0.012792,0.011281,-0.011109,0.001355,
1173,1.173,-0.001291,0.002530,0.015925,0.018236,0.019161,0.005055,-0.007896,0.001708,
1174,1.174,-0.000299,-0.003070,0.007094,0.011591,0.013195,0.001865,-0.006887,0.002909,
1175,1.175,-0.001325,-0.004105,-0.003251,0.005458,0.016874,0.011338,0.003430,0.000383,
1176,1.176,0.001377,0.000463,-0.004625,-0.015042,0.014816,0.005060,0.013076,0.002088,
1177,1.177,0.002225,0.004707,0.006679,0.004041,0.011744,0.006044,0.014260,-0.002968,
1178,1.178,0.007480,0.001005,0.011229,0.011315,0.012230,0.004999,0.006481,-0.000914,
1179,1.179,0.006824,0.001705,-0.001316,-0.004243,0.011703,0.004106,0.005461,-0.005118,
1180,1.180,0.003811,0.002229,-0.003020,0.005907,0.013896,0.003210,0.008168,-0.003407,
1181,1.181,0.002163,0.006293,0.004576,0.011495,0.011021,-0.000583,0.002236,-0.001850,
1182,1.182,0.001707,0.002751,0.003216,0.006450,0.011380,-0.001329,0.010674,0.002411,
1183,1.183,-0.005175,-0.004179,0.002030,0.008025,0.009709,-0.003098,0.018431,-0.001619,
1184,1.184,-0.006134,-0.007220,-0.003548,0.012137,0.006697,-0.006036,0.019425,0.001970,
1185,1.185,-0.008766,-0.013636,-0.000514,0.015903,0.001000,-0.004575,0.020254,0.007077,
1186,1.186,-0.000911,-0.007698,-0.001380,0.014907,-0.001472,-0.005819,0.021100,0.007791,
1187,1.187,-0.001842,-0.009878,-0.000559,0.009676,-0.009872,-0.008753,0.026362,0.002087,
1188,1.188,-0.004459,0.000801,-0.002770,0.010560,-0.002024,-0.012341,0.021487,0.004331,
1189,1.189,-0.001830,-0.000700,0.000774,0.002841,-0.002973,-0.007289,0.012033,0.006406,
1190,1.190,-0.001063,-0.002034,-0.008702,-0.012850,-0.002059,-0.003769,-0.000466,0.005936,
1191,1.191,0.001057,-0.000848,-0.001789,-0.028392,-0.002843,-0.010735,-0.005562,-0.001631,
1192,1.192,0.004189,-0.001857,0.001916,-0.018209,-0.006493,-0.006193,-0.016271,0.001464,
1193,1.193,0.000217,0.001195,0.002915,-0.008859,-0.002876,-0.007070,-0.025960,0.002355,
1194,1.194,-0.000201,0.000364,0.001899,-0.010508,-0.005863,-0.009300,-0.022282,-0.007075,
1195,1.195,-0.004342,0.008155,0.001042,-0.005903,-0.001752,-0.007295,-0.027884,-0.005848,
1196,1.196,-0.002551,0.000889,0.000185,-0.007215,-0.000175,-0.005635,-0.022656,-0.002592,
1197,1.197,-0.002955,0.001747,0.000842,-0.005978,-0.004354,-0.000427,-0.016227,0.000495,
1198,1.198,-0.005885,0.004303,-0.005605,-0.006922,-0.003788,0.003079,-0.015365,-0.000318,
1199,1.199,-0.006119,0.004996,-0.003084,-0.009893,-0.002211,0.002523,-0.013143,0.005635,
1200,1.200,-0.007039,-0.001409,-0.003761,-0.016247,0.003942,0.004172,-0.002492,-0.002804,
1201,1.201,-0.004579,-0.000535,-0.001730,-0.015316,-0.001909,0.005653,0.008133,-0.001764,
1202,1.202,-0.002123,0.001715,-0.000019,-0.005258,-0.001158,0.010701,0.023304,-0.002749,
1203,1.203,-0.006259,0.005322,0.001690,-0.003838,-0.000404,0.007121,0.033382,-0.007271,
1204,1.204,-0.000417,0.002327,-0.006082,-0.002595,-0.004544,0.011337,0.031440,-0.006394,
1205,1.205,-0.002521,-0.001680,-0.000488,0.005247,-0.004965,0.009645,0.026283,-0.002631,
1206,1.206,-0.004451,0.001931,0.000543,0.012581,-0.006394,0.006097,0.018623,-0.001923,
1207,1.207,-0.000116,0.003169,-0.000285,0.008068,-0.007487,-0.000851,0.006102,-0.003575,
1208,1.208,0.002868,0.004744,0.001757,0.007605,-0.005862,-0.005073,-0.005377,-0.002366,
1209,1.209,0.001282,-0.000787,-0.000763,0.010191,-0.002889,-0.002002,-0.027312,0.002909,
1210,1.210,0.004932,0.009237,0.004493,0.013969,-0.000926,-0.008403,-0.036029,0.000908,
1211,1.211,0.008074,0.007929,0.000954,0.012010,0.002397,-0.012577,-0.038663,0.003976,
1212,1.212,0.004287,0.001708,-0.003257,0.007838,0.003690,-0.008752,-0.045860,0.003492,
1213,1.213,0.000841,0.004959,-0.002727,-0.000913,-0.000426,-0.005084,-0.039212,0.005038,
1214,1.214,-0.002091,-0.000237,0.000845,0.000313,-0.000824,-0.004469,-0.024934,-0.001869,
1215,1.215,-0.004008,-0.008651,0.002047,0.003548,-0.002243,-0.001508,-0.011868,-0.002856,
1216,1.216,-0.001363,-0.003031,-0.002670,-0.001680,-0.008224,0.001094,-0.000009,-0.005537,
1217,1.217,0.001107,0.004268,-0.004349,-0.008105,-0.010647,0.002309,0.007613,-0.001281,
1218,1.218,0.004260,0.001584,-0.000270,-0.012343,-0.006815,0.004353,0.003562,-0.001937,
1219,1.219,0.001830,0.002451,0.002283,-0.010178,-0.003155,-0.001402,0.004743,-0.005469,
1220,1.220,0.002948,-0.002779,-0.004631,-0.020856,-0.001358,-0.014261,0.001514,-0.001223,
1221,1.221,0.002709,-0.003451,0.006892,-0.016290,0.002788,-0.031013,0.002517,-0.002894,
1222,1.222,0.002138,-0.005145,0.011486,0.004506,0.004390,-0.015447,0.008933,-0.003389,
1223,1.223,-0.001132,-0.004632,0.004581,0.013313,0.005639,0.007059,0.008082,0.001695,
1224,1.224,0.001172,-0.012415,-0.001651,0.016022,0.000109,0.021939,0.007383,-0.000328,
1225,1.225,0.001615,-0.018011,0.001577,0.013649,0.002352,0.024633,0.013813,0.000186,
1226,1.226,0.000713,-0.014979,-0.003659,-0.001921,0.000360,0.022269,0.016362,-0.001500,
1227,1.227,0.002517,-0.015845,0.000916,-0.003974,0.006143,0.024465,0.018567,0.001041,
1228,1.228,-0.000414,-0.011632,-0.004987,-0.005849,-0.000773,0.018370,0.010794,0.007131,
1229,1.229,-0.002830,-0.006400,-0.002777,-0.010950,-0.003456,0.023943,0.011815,-0.000646,
1230,1.230,-0.003051,-0.005732,-0.004802,-0.018626,-0.011203,0.015474,0.010974,0.002400,
1231,1.231,-0.000564,0.003747,-0.009037,-0.025633,-0.008130,0.013938,0.008450,0.003242,
1232,1.232,0.002604,0.016277,-0.006152,-0.011833,-0.007262,0.001409,0.003209,0.000702,
1233,1.233,-0.002863,0.007824,0.001632,0.001105,-0.013171,-0.003669,-0.001692,0.001381,
1234,1.234,0.000964,0.009349,0.004853,0.009498,-0.015363,-0.005187,-0.011163,-0.000647,
1235,1.235,-0.002474,0.013410,0.007895,0.010950,-0.004706,-0.009241,-0.018099,-0.003694,
1236,1.236,-0.005401,-0.003011,0.007049,0.003944,-0.003191,-0.018034,-0.014379,-0.004204,
1237,1.237,-0.002405,-0.000818,0.001127,-0.007449,0.000854,-0.021234,0.000499,-0.004715,
1238,1.238,0.003467,-0.002849,0.000461,0.006369,0.004557,-0.009719,0.002521,0.000357,
1239,1.239,-0.000146,0.002741,0.011124,0.015633,0.007749,-0.008196,0.022963,0.001031,
1240,1.240,0.002003,0.001054,0.003517,0.003730,0.002477,-0.004132,0.036628,-0.004731,
1241,1.241,0.003808,0.005616,0.004875,-0.000919,0.008873,0.002137,0.029306,0.000497,
1242,1.242,0.005618,0.006964,-0.003922,0.003046,0.013075,0.007719,0.022662,0.005385,
1243,1.243,0.007254,0.010683,0.001671,0.004151,0.015243,0.006729,0.004165,0.003680,
1244,1.244,0.004317,0.016257,0.000668,-0.003689,0.013187,0.007631,0.001730,0.003158,
1245,1.245,0.003235,0.008972,0.003381,-0.004761,0.014845,0.005145,-0.004928,0.003635,
1246,1.246,-0.002419,0.011667,0.002543,-0.005648,0.007204,0.005866,-0.007019,0.004789,
1247,1.247,0.000212,0.005725,-0.001168,-0.004835,0.010223,0.003876,-0.008924,0.003582,
1248,1.248,0.005541,-0.005792,-0.006062,-0.001139,0.001732,-0.001827,-0.003886,0.006089,
1249,1.249,0.006293,-0.004115,-0.003005,-0.008922,-0.003889,-0.001107,0.003690,0.000816,
1250,1.250,0.010589,-0.014787,-0.010610,-0.005868,-0.002909,-0.008855,0.007726,-0.002934,
1251,1.251,0.005402,-0.016168,-0.005369,-0.001310,-0.003787,-0.005769,0.011440,-0.009389,
1252,1.252,0.003421,-0.012466,0.001056,0.004614,-0.008053,-0.010290,0.010417,-0.003499,
1253,1.253,-0.000765,-0.011464,-0.001486,0.009881,-0.004364,-0.014479,0.011427,-0.002852,
1254,1.254,-0.002422,-0.012486,0.000695,0.010574,-0.005060,-0.007534,-0.000776,0.000671,
1255,1.255,-0.004923,-0.007914,-0.001366,0.011085,-0.000856,-0.001112,-0.016043,-0.003584,
1256,1.256,-0.006082,-0.003684,0.001670,0.011612,-0.004947,-0.008891,-0.026243,0.005198,
1257,1.257,-0.002184,-0.003005,-0.002404,0.011127,0.001790,-0.016158,-0.039330,0.004003,
1258,1.258,0.000353,0.003427,0.000113,0.005037,0.000917,-0.007708,-0.044467,0.000778,
1259,1.259,-0.000842,0.002582,0.000423,-0.002735,-0.003332,-0.018052,-0.036920,0.003813,
1260,1.260,-0.004754,0.004775,-0.001637,0.000318,-0.001142,-0.030604,-0.030048,-0.000762,
1261,1.261,-0.006311,0.002748,-0.004193,-0.002362,-0.003184,-0.018811,-0.013696,0.000082,
1262,1.262,-0.009395,-0.003010,0.000357,-0.003197,-0.003703,-0.004995,-0.015934,-0.003636,
1263,1.263,-0.007426,0.000701,-0.000177,0.000529,-0.002031,0.004254,-0.001762,-0.002963,
1264,1.264,-0.006492,0.002719,0.002672,0.002545,-0.000534,0.012665,0.007507,-0.001276,
1265,1.265,-0.004219,0.005743,0.006209,0.004230,-0.005638,0.023271,0.009170,-0.000772,
1266,1.266,-0.006018,0.004033,-0.000747,0.001365,-0.002102,0.024572,0.004562,-0.001288,
1267,1.267,-0.006295,0.004547,0.000239,0.006100,-0.000417,0.023335,0.005880,-0.000959,
1268,1.268,-0.003028,0.004218,-0.000638,0.001865,-0.000938,0.020071,0.009547,0.001067,
1269,1.269,-0.005354,0.006248,-0.001515,-0.004580,0.005813,0.014782,0.008479,-0.003163,
1270,1.270,-0.007523,0.007253,-0.006783,-0.000343,0.001230,0.004409,0.013689,-0.000293,
1271,1.271,-0.006651,0.005547,-0.004786,-0.007233,0.003739,0.000292,0.009099,0.001234,
1272,1.272,-0.005110,0.006551,-0.001755,-0.004457,0.008955,0.003937,0.020245,0.000894,
1273,1.273,-0.003589,0.009057,-0.000084,-0.006888,0.004015,0.004880,0.003318,0.001229,
1274,1.274,-0.007997,0.005784,-0.002663,-0.010509,0.003465,-0.002438,0.001116,-0.001309,
1275,1.275,-0.005117,0.011344,-0.001517,-0.009746,0.000537,-0.001620,0.007192,0.000383,
1276,1.276,-0.004794,0.007593,-0.001217,-0.002730,0.000999,-0.000805,0.001595,-0.001311,
1277,1.277,-0.006523,-0.000220,0.003814,0.005780,-0.005142,0.001356,-0.003494,-0.002666,
1278,1.278,-0.004526,-0.003290,-0.001126,0.018365,-0.014644,0.000636,-0.005036,-0.001995,
1279,1.279,-0.007607,-0.011752,0.005767,0.023511,-0.010955,0.001088,-0.009119,0.001730,
1280,1.280,-0.009680,-0.012738,-0.000703,0.019014,-0.009968,-0.001843,-0.005427,0.001211,
1281,1.281,-0.004655,-0.009643,0.001786,0.020422,-0.004758,-0.006651,-0.002260,0.000018,
1282,1.282,-0.001145,-0.010410,-0.001990,0.001506,-0.003931,-0.009769,0.000727,-0.002865,
1283,1.283,-0.006254,-0.007770,0.001513,0.004263,-0.003100,-0.009351,-0.000191,0.001352,
1284,1.284,-0.008153,-0.000755,0.000970,0.001955,-0.002439,-0.003688,-0.002823,0.003035,
1285,1.285,-0.003120,0.000150,0.001438,-0.009146,0.001094,-0.009024,-0.000762,0.001501,
1286,1.286,-0.004008,-0.002336,-0.005360,-0.015172,-0.000606,-0.005559,-0.001596,-0.003590,
1287,1.287,0.001535,-0.001646,-0.002677,-0.020708,0.005819,0.002631,0.004030,-0.002934,
1288,1.288,-0.003912,-0.000974,-0.000164,-0.008849,0.008362,0.003563,0.001769,0.002806,
1289,1.289,-0.000554,0.004785,-0.003912,-0.001209,0.009042,0.002484,0.001071,0.003480,
1290,1.290,-0.003791,0.004119,0.003848,0.002898,0.004138,0.005141,-0.000569,-0.000074,
1291,1.291,-0.001102,0.000578,-0.001431,0.004104,0.003616,-0.007748,0.003587,-0.001778,
1292,1.292,-0.001799,0.004831,-0.002296,-0.001464,0.001918,-0.024514,0.007251,-0.000097,
1293,1.293,0.000227,0.004340,0.000229,-0.000416,0.004454,-0.017926,0.009565,0.004628,
1294,1.294,-0.001132,0.006896,-0.001970,-0.004934,0.003267,-0.007785,0.009317,0.005134,
1295,1.295,0.000556,0.006568,-0.004009,-0.007410,0.001229,-0.002207,0.005178,0.002259,
1296,1.296,0.003600,0.000139,-0.003512,-0.008013,0.002230,-0.003904,0.005756,0.008010,
1297,1.297,0.004630,0.000988,-0.006413,-0.018593,0.006095,0.000676,0.007340,0.004291,
1298,1.298,0.007017,0.000124,-0.000679,-0.020055,0.003545,0.004762,0.001316,0.006325,
1299,1.299,0.009249,0.003813,0.006243,-0.004790,0.003192,-0.001467,-0.002844,-0.000614,
1300,1.300,0.010821,-0.001119,0.005389,-0.006799,0.001988,-0.004640,0.002478,0.002084,
1301,1.301,0.010033,-0.004201,0.006230,-0.008630,-0.001580,0.000632,0.004594,0.001237,
1302,1.302,0.008236,-0.005929,0.013175,-0.000144,-0.008537,0.014692,0.014156,-0.000969,
1303,1.303,0.004926,-0.013738,0.014028,0.010543,-0.005508,0.020796,0.015595,-0.001649,
1304,1.304,0.005181,-0.010547,0.001174,0.003623,-0.000955,0.007782,0.009410,-0.005877,
1305,1.305,0.010185,-0.007513,0.003035,0.004816,-0.001810,-0.000664,0.006252,-0.005363,
1306,1.306,0.010808,-0.006666,0.004728,0.015152,-0.002487,0.003932,-0.003161,-0.005873,
1307,1.307,0.011271,-0.002425,0.009310,0.005551,-0.004521,0.010886,-0.006830,-0.003661,
1308,1.308,0.009556,-0.000221,0.005264,0.006779,-0.008750,0.014640,-0.014556,-0.001618,
1309,1.309,0.011410,-0.000385,-0.000991,-0.003532,-0.003516,0.017406,-0.014484,-0.006005,
1310,1.310,0.007861,0.003166,-0.004695,0.004253,-0.001832,0.016461,-0.017431,-0.007007,
1311,1.311,0.010922,0.002652,-0.001458,0.005269,0.003913,0.015497,-0.010892,-0.001749,
1312,1.312,0.012975,0.004328,-0.000418,0.011683,0.003225,0.009142,0.000411,-0.001060,
1313,1.313,0.013350,0.006851,-0.006817,0.007440,0.005244,0.008373,0.008161,-0.004601,
1314,1.314,0.011702,0.000739,-0.002561,-0.001035,-0.004231,0.007779,0.023524,-0.000363,
1315,1.315,0.006690,-0.008759,-0.000327,0.004530,-0.011170,0.005844,0.021609,0.000159,
1316,1.316,0.006088,-0.005061,0.000386,0.005528,-0.004918,0.001713,0.030997,-0.000337,
1317,1.317,0.007861,0.000487,0.002105,0.011940,0.000655,-0.003433,0.019229,-0.001503,
1318,1.318,0.006273,0.007729,-0.001926,-0.000938,0.003690,-0.002674,0.002369,0.000541,
1319,1.319,0.002830,0.006843,-0.000374,-0.025151,0.012141,-0.006835,-0.008739,-0.001977,
1320,1.320,0.001769,0.004271,-0.006431,-0.028397,0.011131,-0.000337,-0.010710,0.001251,
1321,1.321,0.008327,0.015739,-0.000472,-0.031284,0.012141,0.007499,-0.012499,0.003294,
1322,1.322,0.005762,0.030931,0.006496,-0.017602,0.014848,0.000273,-0.017496,0.003653,
1323,1.323,-0.006932,0.000282,0.000094,-0.005296,0.014006,-0.006110,-0.009783,0.001297,
1324,1.324,0.002537,0.004665,0.000976,-0.003142,0.007063,-0.006914,-0.005622,0.003683,
1325,1.325,0.011175,0.008530,0.001692,0.006982,0.007905,-0.007553,-0.006699,0.001164,
1326,1.326,0.003748,0.004960,-0.001818,-0.002347,-0.004958,-0.006838,-0.003354,0.005749,
1327,1.327,-0.000119,-0.004874,0.001263,-0.004042,-0.006827,-0.005096,-0.006270,0.001545,
1328,1.328,0.001257,-0.019793,0.001818,-0.002506,-0.008529,-0.004544,-0.001591,0.005622,
1329,1.329,0.002465,-0.027959,0.005421,0.007152,-0.007028,-0.001974,0.007981,0.004114,
1330,1.330,-0.002583,-0.035285,0.006650,0.021037,-0.011100,-0.002274,0.011799,0.002948,
1331,1.331,-0.006964,-0.037540,0.005498,0.015449,-0.009924,0.000639,0.015095,0.003305,
1332,1.332,-0.007622,-0.023389,-0.000222,0.013752,-0.008909,-0.001186,0.024639,0.001461,
1333,1.333,-0.002188,-0.006697,0.004051,0.012209,-0.003655,0.002737,0.043650,0.001132,
1334,1.334,-0.004030,-0.000149,-0.001152,0.008119,-0.002798,0.000237,0.046403,0.002841,
1335,1.335,-0.005524,0.014030,-0.007533,0.011796,-0.003631,0.006366,0.024104,0.005904,
1336,1.336,-0.004819,0.023319,-0.008336,0.019527,-0.005819,-0.001381,-0.008862,-0.000516,
1337,1.337,-0.006139,0.011463,-0.006095,0.016421,-0.002261,-0.002357,-0.030846,-0.003221,
1338,1.338,-0.006280,0.009932,-0.002508,0.002328,-0.000567,-0.006871,-0.058759,-0.002371,
1339,1.339,-0.006431,0.005866,0.001764,0.008387,0.005863,-0.011029,-0.069595,0.001363,
1340,1.340,-0.001172,-0.000391,-0.007003,0.006505,0.001630,-0.011612,-0.072814,0.003406,
1341,1.341,-0.007433,0.002816,-0.013226,-0.005345,-0.000579,-0.010852,-0.064014,0.005108,
1342,1.342,-0.003055,0.001773,-0.014201,-0.016000,-0.001270,-0.009117,-0.044898,-0.003688,
1343,1.343,-0.002242,0.006294,-0.004702,-0.025641,-0.000780,-0.008594,-0.032573,-0.004875,
1344,1.344,-0.001430,0.005407,-0.000959,-0.029365,0.002074,-0.006030,-0.012320,-0.003861,
1345,1.345,-0.009598,0.001666,0.009380,-0.026162,0.002558,-0.012945,0.001298,-0.004880,
1346,1.346,-0.003905,0.009424,0.002467,-0.010450,-0.004396,-0.018188,0.003544,-0.005742,
1347,1.347,-0.004822,0.010419,-0.001239,0.005103,-0.007463,-0.017358,0.010013,0.000162,
1348,1.348,-0.009309,0.005838,-0.000209,0.011176,-0.004779,-0.016534,0.011919,0.000820,
1349,1.349,-0.006707,0.006676,-0.003245,0.005578,-0.003945,-0.005060,0.009931,-0.005625,
1350,1.350,-0.007328,0.005991,-0.005936,0.007266,0.001278,0.006741,0.011514,-0.003125,
1351,1.351,-0.006608,0.003936,0.001861,0.005738,-0.002302,0.011261,0.012950,0.000570,
1352,1.352,-0.009619,0.002220,0.004927,0.012680,0.000720,0.012572,0.019813,-0.001498,
1353,1.353,-0.009096,-0.005422,0.007655,0.011540,-0.001006,0.018799,0.023475,-0.002041,
1354,1.354,-0.011634,-0.008500,0.005124,0.001267,-0.002539,0.010994,0.013122,0.001989,
1355,1.355,-0.007424,-0.011230,-0.000135,-0.016822,-0.001360,0.013992,0.017136,-0.002775,
1356,1.356,-0.009135,-0.005319,-0.000817,-0.019161,0.001520,0.003622,0.013361,-0.003313,
1357,1.357,-0.008668,-0.001611,0.007468,0.001203,0.007279,-0.006061,0.007703,-0.003844,
1358,1.358,-0.006517,0.000418,-0.000313,-0.001446,0.003059,-0.012363,0.002367,-0.002342,
1359,1.359,-0.007764,0.002124,-0.003363,0.000977,0.003729,0.000115,0.004997,-0.004558,
1360,1.360,-0.002778,0.005029,-0.004219,0.007606,0.005754,-0.001622,0.000694,-0.001705,
1361,1.361,-0.003555,-0.000698,-0.001705,0.005609,0.005235,0.005937,0.001271,-0.002069,
1362,1.362,0.002086,0.004573,0.000478,0.007490,-0.000038,0.007223,0.008950,0.001119,
1363,1.363,-0.001742,0.005275,-0.001563,0.005836,0.001956,0.000883,0.024582,-0.000933,
1364,1.364,0.000170,0.003611,-0.001063,0.004357,0.002434,0.001828,0.035650,0.001581,
1365,1.365,0.001730,0.006499,0.001806,0.000330,0.005269,-0.001277,0.029479,-0.002319,
1366,1.366,-0.004834,0.001769,0.002299,0.004082,0.005723,0.003234,0.031259,0.001209,
1367,1.367,0.000946,0.004841,0.001092,0.000875,0.002634,0.005704,0.022742,-0.001005,
1368,1.368,-0.002911,-0.000369,-0.000109,0.001893,-0.002135,-0.001301,0.012033,0.001008,
1369,1.369,-0.001025,-0.000996,-0.005201,-0.008432,0.000882,0.001347,-0.000547,0.002855,
1370,1.370,-0.001685,-0.005190,0.002559,-0.004408,-0.002001,0.002145,-0.012455,-0.001055,
1371,1.371,-0.008264,-0.006856,0.007766,0.011968,-0.002524,0.005827,-0.023178,0.003664,
1372,1.372,-0.002484,-0.014611,0.001315,0.009742,0.000510,0.006476,-0.032902,-0.000583,
1373,1.373,-0.007877,-0.008998,-0.001238,-0.004475,-0.002377,0.003392,-0.034175,-0.002296,
