Frame,Time,RightBicepsBrachiiCaputBrevis,RightTricepsBrachiiCaputLongus,LeftBicepsBrachiiCaputBrevis,LeftTricepsBrachiiCaputLongus,RightTrapeziusDescendens,LeftTrapeziusDescendens,RightLatissimusDorsi,LeftLatissimusDorsi
0,0.000,0.002116,-0.002841,0.005838,-0.013643,0.025332,-0.003586,-0.001967,0.004371
1,0.001,0.005447,-0.001822,-0.000500,-0.022901,0.056833,0.028095,-0.004969,-0.019172
2,0.002,0.000997,0.000850,-0.002950,-0.037077,0.073273,0.057904,0.000636,-0.034759
3,0.003,0.002985,0.003332,-0.000676,-0.044418,0.067146,0.084538,-0.004707,-0.054515
4,0.004,0.001589,0.005451,-0.001271,-0.036452,0.061623,0.086791,0.000075,-0.072375
5,0.005,0.003420,0.003354,0.005743,-0.011349,0.056515,0.069295,0.002993,-0.068780
6,0.006,0.001539,0.001627,-0.000603,-0.007774,0.044129,0.059568,0.006907,-0.065401
7,0.007,0.005740,0.005614,-0.004749,-0.010264,0.018506,0.045163,0.007290,-0.058218
8,0.008,0.002506,0.006046,-0.006867,-0.012574,0.015100,0.032285,0.002968,-0.040593
9,0.009,0.005872,0.007135,-0.003243,-0.009842,-0.005668,0.025210,0.009286,-0.028688
10,0.010,0.002300,0.004191,-0.000115,-0.002966,-0.030068,0.018678,0.015067,-0.013917
11,0.011,0.001096,0.005133,0.001650,-0.004708,-0.032951,0.008995,0.017124,0.003193
12,0.012,0.003621,0.003389,-0.003016,-0.002593,-0.023912,0.000229,0.017657,0.010064
13,0.013,0.004285,0.001001,-0.003448,0.002676,-0.010107,-0.007624,0.020545,0.024396
14,0.014,0.003598,0.002833,-0.002864,0.004367,-0.007630,-0.020268,0.012816,0.030034
15,0.015,-0.001324,0.005645,-0.006344,0.003193,-0.018532,-0.012027,0.007497,0.031752
16,0.016,0.004243,0.005926,-0.002045,0.004520,-0.040542,-0.007677,0.008271,0.015004
17,0.017,-0.002674,0.004038,-0.006776,0.008195,-0.048118,0.006243,0.007192,0.004964
18,0.018,-0.004407,0.002332,-0.006158,0.011505,-0.038876,0.010018,0.009664,-0.015036
19,0.019,0.004104,0.001328,-0.008563,0.010580,-0.008598,0.015932,0.005913,-0.033874
20,0.020,-0.005896,0.002000,-0.008100,0.000416,0.011337,0.007863,0.003866,-0.040902
21,0.021,-0.004250,0.000325,-0.005973,0.001878,0.029243,0.000349,-0.000353,-0.038481
22,0.022,-0.005130,-0.001840,-0.002358,0.000800,0.032234,-0.004429,-0.007900,-0.028127
23,0.023,-0.003836,0.001884,0.001895,0.006417,0.034858,-0.003797,-0.004794,-0.026071
24,0.024,-0.002558,-0.000626,0.000241,-0.002950,0.048185,-0.003344,-0.002030,-0.017428
25,0.025,-0.006835,-0.000932,0.004969,0.003358,0.040601,-0.009935,0.000560,-0.006602
26,0.026,-0.000686,-0.002912,0.003280,-0.013532,0.038108,-0.009257,-0.000056,0.006060
27,0.027,-0.004154,0.000655,0.002783,-0.015692,0.023721,-0.011580,-0.002017,0.014627
28,0.028,-0.003243,0.000334,0.000270,-0.013291,0.014326,-0.006800,-0.002446,0.019288
29,0.029,-0.004688,-0.003516,-0.001884,-0.011056,0.002501,-0.012592,-0.002864,0.023421
30,0.030,-0.004962,-0.005986,-0.001513,-0.009034,-0.011230,-0.016311,0.004970,0.024663
31,0.031,-0.008256,-0.000894,-0.001821,-0.003844,-0.020313,-0.016961,-0.002716,0.019131
32,0.032,-0.002982,0.001133,-0.003472,0.003799,-0.035176,-0.011213,-0.003624,0.011911
33,0.033,-0.006307,-0.001891,0.000265,-0.003072,-0.044878,-0.002818,-0.000819,0.001664
34,0.034,-0.004414,-0.001369,0.001452,-0.004189,-0.042590,-0.003830,0.000135,-0.002311
35,0.035,-0.003734,0.001154,-0.002408,-0.000946,-0.027057,-0.002713,-0.004978,0.006582
36,0.036,-0.011287,0.004158,-0.000868,0.000071,-0.020713,-0.012696,-0.002819,0.005631
37,0.037,-0.003353,-0.001418,-0.007721,-0.006330,-0.011235,-0.021905,0.004213,0.010897
38,0.038,-0.006224,0.000771,-0.010652,-0.014025,0.004035,-0.010292,-0.002088,0.006325
39,0.039,-0.003391,0.001438,0.003391,-0.019125,0.010110,-0.005590,-0.002801,0.008870
40,0.040,-0.009134,0.001942,0.009442,-0.005056,0.015628,-0.004202,-0.000480,0.005137
41,0.041,-0.006792,0.001423,0.011249,0.009081,0.010523,0.002012,0.001664,0.003074
42,0.042,-0.005984,-0.002115,0.002817,-0.000213,0.012015,0.009654,0.003464,0.000019
43,0.043,-0.006372,0.000074,0.001322,0.001469,0.010675,0.010515,0.005258,-0.008785
44,0.044,-0.006787,0.003917,0.008210,0.002955,0.001971,0.011194,-0.002390,-0.012503
45,0.045,-0.003177,-0.002845,0.009333,0.004257,-0.010357,-0.000060,-0.003268,-0.009302
46,0.046,-0.008166,0.005557,0.008270,0.003028,-0.015196,0.001375,0.002089,0.000140
47,0.047,-0.006074,0.002309,0.001006,-0.004751,-0.010441,0.013745,0.008607,0.006357
48,0.048,-0.007703,-0.009149,0.000173,-0.005760,-0.011593,-0.004777,0.004487,0.009515
49,0.049,-0.005982,-0.010611,-0.005691,0.000622,-0.010211,-0.006992,0.005276,0.002176
50,0.050,-0.002463,-0.003669,-0.003447,0.004783,-0.009023,-0.000328,0.000502,0.002968
51,0.051,-0.005507,-0.007354,0.004319,0.009915,-0.014012,0.001719,-0.008798,-0.003021
52,0.052,-0.001649,-0.004128,-0.000907,0.002078,-0.020099,0.007305,-0.004589,-0.010032
53,0.053,-0.006415,0.003097,-0.000055,0.000995,-0.017254,0.005632,-0.008138,-0.022293
54,0.054,-0.009476,-0.003325,-0.002565,0.001763,-0.019199,-0.017217,-0.004775,-0.020702
55,0.055,-0.000776,-0.005852,-0.003213,0.000871,-0.014135,-0.046675,-0.014067,-0.019276
56,0.056,-0.004569,-0.005176,-0.002502,0.006057,-0.014542,-0.050272,-0.012706,-0.009720
57,0.057,-0.003642,0.002557,0.003232,0.003987,-0.008126,-0.017441,-0.015735,-0.008602
58,0.058,-0.000714,0.005535,-0.005176,0.006971,0.001222,0.013121,-0.008324,-0.000886
59,0.059,0.000003,0.002770,0.000414,0.007417,0.004790,0.040598,-0.007353,0.004309
60,0.060,-0.004326,0.001868,0.001440,0.009892,0.005616,0.050921,-0.001338,0.008844
61,0.061,-0.003774,-0.001889,-0.003082,0.006838,0.008433,0.053624,0.002463,0.002918
62,0.062,-0.004575,-0.006798,-0.003881,0.006503,-0.005734,0.055984,0.006077,0.002253
63,0.063,-0.000513,0.000074,-0.001671,0.001429,-0.024135,0.052780,0.000403,0.004304
64,0.064,-0.002358,-0.004537,-0.000998,0.010640,-0.016846,0.020207,0.001145,0.012628
65,0.065,0.005218,-0.008773,0.000689,-0.005753,0.003338,-0.019520,0.004746,0.018259
66,0.066,0.010562,-0.003567,0.000183,-0.012286,0.011287,-0.035282,0.001740,0.019325
67,0.067,0.003100,-0.011344,-0.000319,-0.006162,0.003885,-0.020859,-0.004657,0.018528
68,0.068,0.002067,-0.001926,0.000866,0.010503,0.010321,0.001024,-0.000400,0.022801
69,0.069,0.006086,-0.003167,0.003725,0.021499,0.012186,0.020734,0.000295,0.022143
70,0.070,0.002190,-0.000030,0.001856,0.019322,0.017595,0.031233,-0.006128,0.017254
71,0.071,0.006878,-0.001105,0.000168,0.021000,0.022467,0.027699,-0.006981,0.007806
72,0.072,0.004988,-0.000332,-0.000157,0.019145,0.023776,0.030237,-0.006313,0.000898
73,0.073,0.008840,-0.001232,0.000521,0.008393,0.027598,0.027222,-0.005660,-0.000245
74,0.074,0.007110,0.000900,0.002211,0.004275,0.031055,0.024569,-0.002643,0.003019
75,0.075,0.005745,0.002852,-0.000991,0.000507,0.036331,0.008821,0.002584,0.012553
76,0.076,0.006755,0.003287,0.003732,-0.016526,0.030804,-0.013722,0.001888,0.008898
77,0.077,0.001553,0.009612,0.000682,-0.033628,0.024129,-0.028547,0.000174,0.007950
78,0.078,0.004967,0.005306,0.004707,-0.018014,0.017983,-0.025787,0.004212,0.004964
79,0.079,0.001814,0.007422,0.005176,-0.019967,0.012541,-0.028076,0.002664,-0.001428
80,0.080,0.003400,0.008008,0.005473,-0.010633,0.001753,-0.030181,0.001461,-0.014279
81,0.081,-0.002406,0.007425,-0.000962,0.001175,-0.002911,-0.028065,0.001782,-0.031041
82,0.082,-0.001784,0.006852,-0.000129,-0.000364,-0.004339,-0.052012,-0.003981,-0.042255
83,0.083,0.005921,0.010323,0.000704,0.000966,-0.013145,-0.101023,0.000258,-0.048437
84,0.084,0.002832,0.008057,0.000033,0.007142,-0.012116,-0.164191,-0.001914,-0.028083
85,0.085,0.001954,0.005131,-0.006364,0.017304,-0.011032,-0.137526,0.001664,-0.003502
86,0.086,-0.003950,0.003239,-0.010532,0.010257,-0.008232,-0.066621,0.002189,0.006207
87,0.087,0.004490,-0.002001,-0.011143,-0.006145,-0.002230,0.018664,0.002728,-0.008791
88,0.088,-0.005764,-0.008888,-0.014618,-0.008334,0.000043,0.075712,0.004288,-0.000760
89,0.089,-0.001650,-0.000424,-0.011517,-0.018416,0.002126,0.085530,0.003983,0.006427
90,0.090,-0.005279,0.000592,-0.016653,-0.023896,-0.007253,0.094469,0.002822,-0.013972
91,0.091,-0.001983,0.003625,-0.007295,-0.018726,-0.027877,0.085380,0.003169,-0.016769
92,0.092,0.009564,0.006302,0.006546,-0.008013,-0.030579,0.077220,0.004180,-0.024114
93,0.093,0.005082,0.003755,0.008362,-0.006608,-0.027735,0.069808,0.003846,-0.012993
94,0.094,0.003838,0.000046,0.003269,-0.005389,-0.029972,0.050315,0.004524,-0.002865
95,0.095,0.000255,0.000731,0.001729,0.000190,-0.018756,0.021018,0.000619,0.002712
96,0.096,0.001417,0.003764,0.003048,0.001198,-0.020737,-0.037405,-0.001085,0.007818
97,0.097,0.006784,-0.001456,0.001839,0.002061,-0.022516,-0.060367,-0.004631,0.009363
98,0.098,0.020883,-0.000766,-0.001392,-0.005681,-0.010596,-0.024659,-0.003423,-0.000290
99,0.099,0.002616,-0.004962,0.001616,-0.012876,-0.021067,0.007635,-0.003725,0.000854
100,0.100,0.000454,-0.003235,0.000745,-0.010099,-0.035997,0.001874,-0.001813,-0.004772
101,0.101,0.011769,0.001502,0.003244,0.002741,-0.025607,0.007084,-0.004974,-0.001768
102,0.102,0.009908,-0.004223,0.002540,0.008276,0.002401,0.021366,-0.002044,0.010400
103,0.103,0.011934,0.004220,0.003175,0.003177,0.022326,0.034398,0.002255,0.008712
104,0.104,0.007053,0.003212,0.000106,0.004663,0.040293,0.030367,0.000639,0.016360
105,0.105,0.005736,-0.004029,0.002939,0.005966,0.056439,0.033752,0.002248,0.015075
106,0.106,0.007298,-0.004832,-0.004842,0.004759,0.053299,0.023799,0.008416,0.026498
107,0.107,0.003813,0.001116,-0.001643,0.003722,0.039378,0.014922,0.005961,0.028118
108,0.108,0.000850,0.001820,-0.004676,-0.003523,0.036791,0.001266,0.008240,0.024129
109,0.109,0.008347,0.001176,-0.003833,-0.017460,0.030013,-0.010948,0.004784,0.012862
110,0.110,0.005877,0.000709,0.000374,-0.019368,0.023801,-0.021902,0.001838,0.008361
111,0.111,0.011996,0.005967,0.010284,0.008507,0.003319,-0.019665,0.000252,0.001488
112,0.112,0.006982,0.009508,0.014246,0.028323,-0.004776,-0.025012,0.001879,-0.004710
113,0.113,0.003668,0.002590,0.005401,0.024636,-0.007114,-0.036553,0.005028,-0.014975
114,0.114,-0.002992,-0.000086,0.002164,0.014746,-0.009269,-0.025649,0.002254,-0.018991
115,0.115,-0.000031,0.004161,0.003165,0.005954,-0.011216,-0.015849,0.004215,-0.027725
116,0.116,-0.000619,-0.001034,-0.001401,0.008669,-0.012973,0.000610,0.001093,-0.026663
117,0.117,-0.002557,0.003895,-0.000567,0.015879,-0.004458,0.011772,0.005062,-0.015134
118,0.118,-0.002989,0.002406,0.000767,0.006721,-0.000896,0.017180,0.006818,-0.016952
119,0.119,0.000779,-0.004460,0.001436,0.013282,0.006689,0.019210,0.009425,-0.015293
120,0.120,0.000476,0.000144,-0.002095,0.007198,0.010694,0.013647,0.004408,-0.005625
121,0.121,-0.006905,-0.007569,0.004816,0.005333,0.004405,0.005233,0.008009,-0.001934
122,0.122,0.004759,-0.004473,0.000258,0.000286,0.001175,0.003763,0.009753,-0.000974
123,0.123,-0.002680,-0.005258,0.002786,0.001814,0.006370,0.005182,0.002196,-0.000033
124,0.124,-0.009417,-0.007721,0.000601,0.008699,-0.000081,0.004068,0.003263,0.002585
125,0.125,-0.008065,-0.011356,0.004146,0.002409,-0.004321,-0.001446,0.002456,0.008380
126,0.126,-0.011104,-0.004859,0.004650,0.005573,-0.005010,-0.004447,-0.000041,0.011956
127,0.127,-0.009940,-0.007294,0.001784,-0.001708,-0.007053,-0.005243,0.000683,0.022372
128,0.128,-0.010658,-0.003488,0.000267,-0.004424,-0.012801,-0.006030,-0.004176,0.032703
129,0.129,-0.013073,-0.008298,0.002468,-0.006941,-0.018024,-0.005283,-0.001086,0.033731
130,0.130,-0.007759,-0.005172,0.001290,-0.006232,-0.022898,-0.008754,-0.009849,0.039608
131,0.131,-0.012580,-0.004593,-0.002912,-0.002657,-0.025908,-0.010385,-0.021151,0.049440
132,0.132,-0.013019,-0.003007,-0.009285,0.006807,-0.034625,-0.012011,-0.025695,0.044905
133,0.133,-0.007747,0.000077,-0.001487,0.013694,-0.053405,-0.007255,-0.018745,0.033187
134,0.134,-0.007064,-0.001079,-0.006704,0.009921,-0.050547,-0.004243,-0.012467,0.019041
135,0.135,-0.011280,-0.000067,-0.005836,-0.004963,-0.043136,-0.001435,-0.015683,0.016955
136,0.136,-0.011794,-0.003933,-0.003286,-0.002919,-0.027475,-0.004955,-0.012645,-0.001683
137,0.137,-0.011321,-0.003419,-0.001088,-0.004762,-0.004952,-0.006007,-0.009941,-0.008893
138,0.138,-0.011694,-0.001241,-0.007485,-0.006430,0.009902,-0.007805,-0.000474,-0.002262
139,0.139,-0.009725,-0.000919,-0.004915,-0.010944,0.028923,-0.013259,0.010856,-0.012245
140,0.140,-0.014847,0.001593,-0.001164,-0.014918,0.036100,-0.025817,0.018479,-0.024984
141,0.141,-0.014233,-0.000779,-0.004675,-0.021063,0.042553,-0.031161,0.011573,-0.039826
142,0.142,-0.013808,0.001578,-0.004120,-0.010693,0.044426,-0.015813,0.012773,-0.049529
143,0.143,-0.009857,0.005765,0.004696,-0.003721,0.042416,-0.017753,0.015984,-0.050967
144,0.144,-0.007456,0.005219,0.008412,-0.004875,0.037218,-0.008437,0.012925,-0.058942
145,0.145,-0.005409,0.005675,0.002838,-0.021853,0.017203,0.010059,0.002580,-0.035654
146,0.146,-0.003558,0.008148,0.003843,-0.009453,-0.018401,0.017147,-0.004393,-0.005833
147,0.147,-0.005603,0.005053,0.004684,-0.007219,-0.042426,0.019087,-0.013223,0.014014
148,0.148,-0.010338,-0.000565,-0.003069,-0.005160,-0.046673,0.032973,-0.018841,0.010396
149,0.149,-0.003607,0.010854,-0.000009,0.007822,-0.034717,0.030842,-0.017858,0.007139
150,0.150,-0.004677,0.012453,-0.000828,0.009465,-0.031075,0.018816,-0.017042,-0.013521
151,0.151,-0.000706,0.010851,0.003411,0.004860,-0.008073,0.017113,-0.017929,-0.021429
152,0.152,-0.000286,0.003868,0.002738,0.006188,0.000692,0.012893,-0.017294,-0.038317
153,0.153,0.000131,0.007521,0.003417,0.009869,0.030671,0.006495,-0.015299,-0.044494
154,0.154,0.001558,0.001903,0.001742,-0.005000,0.042354,0.011922,-0.008389,-0.042082
155,0.155,-0.002758,-0.005379,0.002258,0.001092,0.052988,0.008717,-0.003868,-0.028791
156,0.156,0.000522,-0.002697,-0.002454,-0.008165,0.056009,-0.003576,0.000328,-0.003337
157,0.157,-0.001938,-0.001885,0.000607,-0.006426,0.047053,-0.002021,-0.001909,0.007494
158,0.158,-0.000182,-0.007133,0.002305,-0.010925,0.022290,-0.003677,0.000071,0.010669
159,0.159,0.002076,-0.006466,0.001798,0.001599,0.012437,-0.010716,0.001716,0.013465
160,0.160,-0.000552,-0.002267,0.002975,0.003272,0.009520,-0.017070,0.004523,0.010673
161,0.161,0.004242,-0.000613,0.000944,0.007786,0.001376,-0.024905,0.005975,0.012932
162,0.162,0.003291,0.004069,-0.003268,0.000856,-0.010965,-0.032172,0.003703,0.019361
163,0.163,0.003525,-0.004242,-0.009645,-0.017995,-0.022082,-0.023736,0.004816,0.009096
164,0.164,0.004938,-0.007464,-0.001855,-0.031558,-0.015966,-0.022745,0.010491,0.018208
165,0.165,0.006185,-0.002255,0.003368,-0.004309,-0.010375,-0.021740,0.014638,0.026414
166,0.166,0.008154,-0.006865,0.004207,0.006498,0.001431,-0.017251,0.016756,0.027689
167,0.167,0.008271,-0.000988,-0.005282,0.003256,-0.000126,-0.007843,0.013118,0.028784
168,0.168,0.011612,0.004218,-0.009020,0.000346,0.001202,0.008506,0.017269,0.029733
169,0.169,0.007186,0.007724,-0.001244,0.008426,0.002372,0.019623,0.015499,0.030497
170,0.170,0.011069,0.005989,-0.008519,0.001110,-0.000849,0.009419,0.009670,0.027240
171,0.171,0.015640,0.000703,-0.002097,0.007655,-0.001869,-0.007384,0.005864,0.024345
172,0.172,0.011254,-0.002896,-0.008018,0.013697,-0.002725,-0.009646,0.006452,0.013065
173,0.173,0.015185,0.001281,-0.002781,0.015500,-0.001881,0.004508,0.013294,0.002354
174,0.174,0.008305,-0.007564,-0.006334,0.013765,-0.004068,0.017482,0.010486,-0.001734
175,0.175,0.010902,-0.021486,-0.002102,-0.000120,-0.006092,0.002200,0.000911,-0.002923
176,0.176,0.013346,-0.015943,0.004328,0.005470,-0.007777,-0.003940,-0.002917,-0.008461
177,0.177,0.013945,-0.010904,0.001779,0.007174,-0.009454,-0.005845,-0.002005,-0.013625
178,0.178,0.017437,-0.009418,0.002445,-0.000459,-0.005881,0.002576,0.000940,-0.008991
179,0.179,0.010473,-0.005384,0.001760,0.003565,-0.004678,0.022513,-0.001858,0.000492
180,0.180,0.007746,-0.006596,-0.001288,0.002359,-0.008531,0.025207,0.000590,0.014283
181,0.181,0.008594,-0.001033,0.002760,0.005562,-0.005917,0.027568,-0.000170,0.019740
182,0.182,0.012329,0.008419,0.010536,0.017049,-0.007011,0.029773,-0.002293,0.027999
183,0.183,0.005929,0.019729,0.009504,0.024666,-0.013348,0.023692,0.005912,0.020221
184,0.184,0.008516,0.005847,0.004249,0.009470,-0.027311,0.003250,0.006853,0.007585
185,0.185,0.010772,0.011425,0.005077,0.003405,-0.033325,-0.004842,-0.000491,-0.011053
186,0.186,0.004416,0.016495,0.004225,-0.005878,-0.027650,-0.017150,-0.001413,-0.033287
187,0.187,0.000274,0.005832,-0.004233,-0.010944,-0.032619,-0.023708,-0.005696,-0.053906
188,0.188,-0.000299,0.007183,-0.007450,-0.021605,-0.040108,-0.001158,-0.017259,-0.051024
189,0.189,-0.002212,-0.001608,-0.004409,-0.017558,-0.021880,0.031902,-0.029136,-0.038573
190,0.190,0.002149,-0.002615,-0.001706,0.001379,-0.019378,0.027619,-0.018502,-0.023022
191,0.191,0.005161,0.004659,-0.000853,-0.001335,-0.008091,0.023838,-0.006004,-0.000688
192,0.192,0.002773,0.000102,0.004390,0.005932,0.002167,0.020398,-0.000957,0.007865
193,0.193,-0.003156,0.002662,0.005066,0.003747,0.019019,0.017329,0.003591,0.021238
194,0.194,-0.000450,0.003363,0.010825,0.005819,0.034667,0.014593,0.004933,0.018556
195,0.195,0.001918,0.002709,0.003905,0.007738,0.048948,0.017440,-0.001331,0.020441
196,0.196,0.000075,0.003233,0.001201,0.002733,0.062021,0.010302,-0.002350,0.001841
197,0.197,0.003305,0.002738,-0.001342,0.007379,0.050188,0.003848,-0.005405,-0.005474
198,0.198,0.000610,0.000220,-0.005088,0.000505,0.042577,-0.002086,-0.006276,-0.025649
199,0.199,0.004340,-0.002827,-0.005790,0.006818,0.027371,-0.007471,0.001471,-0.028193
200,0.200,0.002338,-0.001630,0.001129,0.001301,0.025391,-0.008893,-0.001608,-0.040274
201,0.201,-0.003888,-0.001954,-0.001591,0.000373,0.019884,-0.001058,-0.004358,-0.033469
202,0.202,-0.008253,-0.002966,-0.005829,-0.002272,0.008170,-0.004957,-0.008613,-0.019139
203,0.203,-0.007217,-0.002634,-0.003636,-0.010024,0.003791,-0.003645,0.002880,-0.002386
204,0.204,-0.007710,-0.003321,-0.000093,-0.013043,-0.005618,-0.004571,-0.005579,-0.004583
205,0.205,-0.008205,0.000547,-0.007040,-0.017602,-0.014166,-0.005542,-0.000997,-0.002528
206,0.206,-0.006344,-0.001162,-0.002473,-0.018444,-0.021730,-0.010096,0.003093,0.006795
207,0.207,-0.009052,0.000354,0.001748,-0.013208,-0.014281,-0.017904,-0.000589,0.011906
208,0.208,-0.009413,0.000696,0.003952,-0.005425,-0.013329,-0.008485,0.009773,0.016529
209,0.209,-0.007068,0.001051,0.005987,0.006071,-0.007384,-0.014810,0.005770,0.015251
210,0.210,-0.003037,0.000736,0.007685,0.001517,-0.006717,-0.025183,0.004647,0.016490
211,0.211,-0.005446,0.001785,0.001270,0.000207,-0.004703,-0.021158,0.003699,0.022085
212,0.212,-0.004133,-0.003241,0.000427,-0.000925,-0.004238,-0.017469,0.006815,0.023124
213,0.213,-0.007907,-0.001155,0.002612,0.000110,-0.003793,-0.011903,0.006035,0.022326
214,0.214,-0.006280,0.000583,0.000576,0.003149,0.001880,-0.010898,0.005255,0.009550
215,0.215,-0.005006,-0.001065,0.003630,0.007718,0.004007,-0.004483,0.004641,0.015191
216,0.216,-0.005268,-0.001531,0.003133,0.011980,0.005963,-0.000256,0.001141,0.003469
217,0.217,-0.006221,0.002725,-0.003630,0.006764,0.001679,-0.003961,0.000663,0.011144
218,0.218,-0.008541,-0.002489,-0.006337,0.008816,0.002134,0.000968,0.001180,0.001591
219,0.219,-0.006977,0.000934,-0.003641,0.009145,0.002261,-0.000852,0.001532,0.003671
220,0.220,-0.006622,0.000290,-0.002799,0.003359,0.002738,0.000906,0.005077,0.004878
221,0.221,-0.009158,0.007238,-0.002116,0.005524,-0.004234,-0.000727,0.008117,0.008074
222,0.222,-0.012378,0.004549,-0.004137,-0.002270,-0.007330,-0.000184,0.006084,0.005000
223,0.223,-0.006827,0.005415,-0.007176,-0.015969,-0.004674,0.006769,0.007101,-0.005318
224,0.224,-0.004678,-0.001484,-0.003094,-0.028991,-0.003888,0.001529,0.008119,-0.012241
225,0.225,-0.005416,0.001259,0.004698,-0.023920,-0.006156,0.000672,0.004390,-0.013397
226,0.226,-0.003794,0.002134,0.001507,-0.000928,-0.006889,0.001471,0.003195,-0.018902
227,0.227,-0.012667,-0.001551,-0.001513,0.008887,-0.003904,-0.002287,-0.003249,-0.015786
228,0.228,-0.006506,-0.000832,-0.002341,0.000104,-0.012754,-0.002984,-0.000539,-0.014855
229,0.229,-0.005608,-0.002484,0.001907,-0.002603,-0.031751,-0.002493,-0.006452,-0.007016
230,0.230,-0.004726,0.000434,-0.003329,0.004666,-0.029087,-0.005380,-0.001206,0.006689
231,0.231,-0.002171,0.004011,0.001589,-0.001945,-0.021866,-0.000680,-0.003229,0.004857
232,0.232,-0.003179,-0.002902,0.003296,-0.012084,-0.010756,-0.003784,-0.000183,0.009933
233,0.233,0.001908,-0.005909,0.005018,-0.010209,0.003393,0.002599,0.005071,0.011428
234,0.234,-0.001826,-0.003160,-0.001735,-0.011885,0.005195,0.000022,0.008629,0.010028
235,0.235,-0.001509,-0.003988,-0.002576,0.001985,0.010214,0.003675,-0.000842,0.016196
236,0.236,-0.003389,-0.003291,0.001661,0.011286,0.011677,-0.001325,0.006090,0.008326
237,0.237,-0.003080,-0.005307,-0.000534,0.016332,0.012988,-0.010898,-0.002715,0.013455
238,0.238,-0.002942,-0.004804,0.001500,0.011731,0.011754,-0.031814,-0.003740,0.021786
239,0.239,-0.000270,0.002801,-0.002729,0.010340,0.012734,-0.023093,-0.002739,0.029450
240,0.240,-0.001495,-0.004484,0.001327,0.009125,0.013729,-0.015021,-0.003610,0.040839
241,0.241,-0.001362,-0.009071,0.001835,0.003528,0.005255,-0.017462,-0.007853,0.042278
242,0.242,0.001477,-0.006546,0.001501,-0.007997,0.006273,-0.006389,-0.011572,0.040878
243,0.243,0.007021,-0.004372,-0.003235,-0.015623,0.003250,0.003637,-0.015116,0.032049
244,0.244,-0.000976,0.000513,0.001000,-0.025284,0.000581,0.016535,-0.018155,0.014973
245,0.245,0.004057,0.003540,0.006250,-0.016504,0.004859,0.011329,-0.012898,-0.017196
246,0.246,0.006564,-0.002910,0.015551,0.000569,-0.000349,0.000549,-0.002242,-0.038965
247,0.247,0.007205,0.008227,0.009287,0.007823,-0.005227,-0.020375,0.005367,-0.050565
248,0.248,-0.001450,0.003636,0.003696,0.005603,-0.010983,-0.065479,0.009426,-0.068342
249,0.249,-0.004857,0.002254,0.000632,-0.008636,-0.017942,-0.033257,0.018218,-0.051695
250,0.250,-0.001997,0.005936,-0.000227,0.004361,-0.032033,0.007600,0.007905,-0.036624
251,0.251,0.004257,0.006916,-0.002778,0.022937,-0.058661,0.023424,0.000969,-0.017412
252,0.252,0.006620,0.009926,-0.000595,0.020538,-0.062288,0.037739,-0.000216,-0.000148
253,0.253,0.004255,0.012591,-0.001285,0.018303,-0.059155,0.059697,-0.003445,-0.011262
254,0.254,0.006130,0.004776,-0.007049,0.020295,-0.032159,0.063568,-0.008694,-0.021310
255,0.255,0.004289,-0.000508,-0.003334,0.018397,-0.006852,0.067093,-0.009569,-0.026764
256,0.256,0.011763,-0.005103,-0.008252,0.009901,0.022857,0.070281,-0.010431,-0.041796
257,0.257,0.006398,-0.012921,-0.006570,0.011386,0.050714,0.061438,-0.015700,-0.039548
258,0.258,0.005442,-0.011941,-0.006068,0.001711,0.054221,0.036682,-0.013704,-0.022639
259,0.259,0.004494,-0.012825,-0.008612,-0.017258,0.044371,0.013633,-0.013245,-0.011352
260,0.260,0.000694,-0.017091,-0.001688,-0.019981,0.047217,0.004796,-0.012797,-0.017309
261,0.261,0.001303,-0.014927,0.007775,-0.002754,0.044492,-0.008947,-0.008129,-0.022741
262,0.262,0.001758,-0.010051,-0.001039,0.003818,0.042104,-0.006601,-0.006525,-0.004081
263,0.263,0.004588,-0.005864,-0.004273,-0.006354,0.035490,-0.004393,-0.001361,-0.001694
264,0.264,0.005064,0.000517,-0.001248,-0.008245,0.033461,-0.010417,0.006338,0.000506
265,0.265,0.006241,0.008259,0.003296,0.000188,0.020442,-0.019607,0.017772,0.010579
266,0.266,0.005904,0.009231,0.000743,-0.001363,0.011996,-0.017779,0.022265,0.019757
267,0.267,0.001689,0.004620,0.005973,0.013835,0.001363,-0.022192,0.015247,0.031541
268,0.268,0.005776,0.008808,0.005284,0.028017,-0.008251,-0.034525,0.021452,0.036043
269,0.269,0.008356,0.017231,-0.004203,0.014963,-0.007045,-0.036026,0.011097,0.040023
270,0.270,0.004179,0.006893,-0.000142,-0.000288,0.000764,-0.028241,0.004129,0.043657
271,0.271,0.007121,0.002815,-0.001323,-0.010477,-0.002254,-0.015578,0.000389,0.040352
272,0.272,0.010758,-0.005991,-0.006905,-0.012381,0.002332,-0.000245,0.001399,0.039254
273,0.273,0.003915,-0.009206,0.000374,-0.010739,0.004887,0.009980,0.004437,0.025129
274,0.274,0.000984,-0.008202,-0.004195,-0.012331,-0.006582,0.015696,-0.000132,0.006588
275,0.275,-0.001591,-0.005508,-0.001643,-0.019344,-0.004852,0.000715,0.000713,-0.000779
276,0.276,0.004465,-0.002971,0.000574,-0.023133,-0.009375,-0.013181,-0.009273,-0.012037
277,0.277,0.008338,0.000747,-0.000093,-0.015395,-0.007974,-0.011045,-0.007920,-0.010101
278,0.278,0.004934,0.001425,0.005660,-0.008147,-0.011650,-0.005769,-0.004203,-0.008326
279,0.279,0.008150,0.010898,0.000426,-0.003621,-0.006023,0.004984,-0.005229,-0.010091
280,0.280,0.006640,0.012245,-0.000236,-0.016517,-0.002948,0.011980,0.000015,-0.005602
281,0.281,-0.000947,0.003442,-0.005977,-0.010970,-0.000197,-0.004382,-0.006408,0.009556
282,0.282,0.004835,0.002422,0.002496,-0.009321,-0.004369,-0.015509,0.001380,0.015569
283,0.283,0.006056,0.005453,0.003530,-0.007855,-0.011234,-0.009396,0.002399,0.013630
284,0.284,-0.000157,0.002742,0.000501,-0.009270,-0.006578,0.003607,0.001558,0.022006
285,0.285,-0.000782,0.005290,0.001355,0.004545,-0.009034,0.001850,0.004109,0.011278
286,0.286,-0.004279,0.005987,-0.002863,0.006369,-0.002014,0.006362,0.001918,-0.009598
287,0.287,-0.003382,0.005342,-0.000651,0.004662,-0.010387,-0.000610,-0.000093,-0.024560
288,0.288,-0.001456,-0.000374,0.004265,0.006161,-0.004728,-0.001821,0.004156,-0.038343
289,0.289,-0.001732,0.003384,0.002580,0.007472,-0.003643,0.005915,0.005865,-0.040786
290,0.290,-0.000982,0.001409,0.000886,0.008619,-0.008147,0.011125,0.002341,-0.038655
291,0.291,-0.001925,0.004500,0.004447,0.005381,-0.014004,0.023287,0.001190,-0.012162
292,0.292,0.001198,0.000485,0.000231,0.006370,-0.016147,0.018202,0.003258,0.013136
293,0.293,0.000431,-0.002003,0.001919,0.003622,-0.016779,0.013629,-0.002460,0.009843
294,0.294,-0.003881,-0.001608,0.001412,0.001048,-0.007261,0.006672,0.001810,0.012628
295,0.295,0.000597,0.001323,0.000255,0.001698,-0.003166,-0.002130,0.001173,0.015223
296,0.296,-0.000838,-0.003681,0.001471,0.003742,0.000597,-0.009935,-0.002337,0.002748
297,0.297,-0.002109,-0.001595,0.005732,0.004298,0.001647,-0.019434,-0.000583,0.000421
298,0.298,-0.002196,0.002705,0.001699,0.006058,0.004712,-0.018291,-0.003398,-0.005787
299,0.299,-0.005855,-0.000112,0.005263,0.003573,0.011154,-0.012763,-0.001803,-0.004039
300,0.300,-0.004110,-0.000567,0.004086,0.002421,0.008625,-0.009698,-0.002920,0.011104
301,0.301,-0.005079,0.002533,0.000207,0.003651,0.004905,-0.023601,0.003565,0.021197
302,0.302,-0.004524,-0.002152,0.000727,0.001180,-0.002879,-0.021393,0.002765,0.019301
303,0.303,-0.000760,0.000941,-0.000445,0.001569,-0.005907,-0.008240,0.010592,0.007447
304,0.304,-0.001746,-0.004252,-0.000778,0.001961,-0.006720,-0.003074,0.003356,0.002859
305,0.305,-0.003585,0.000690,0.001097,0.003865,-0.007510,0.013873,0.007954,-0.017960
306,0.306,-0.003738,0.000219,0.000090,0.005592,-0.002194,0.020452,0.008831,-0.026762
307,0.307,-0.001191,0.001947,0.001107,0.004414,-0.000071,0.018368,0.018848,-0.029465
308,0.308,-0.006113,0.000462,0.004164,0.004917,0.003068,0.016408,0.017516,-0.022172
309,0.309,-0.002398,-0.000684,0.001303,0.007119,0.000278,0.014564,0.016356,-0.019925
310,0.310,-0.005312,-0.003528,0.001653,0.002887,0.006078,0.009845,0.021943,-0.005664
311,0.311,0.000062,0.002255,0.001333,-0.000153,0.006804,-0.002844,0.012477,0.003675
312,0.312,-0.003377,0.006517,0.002378,0.003930,-0.000929,-0.028391,0.008762,0.001994
313,0.313,-0.009032,0.001312,0.002223,0.001417,0.002146,-0.046674,-0.003742,0.012644
314,0.314,-0.003699,0.003383,-0.001668,0.003622,0.001307,-0.043647,-0.002041,0.016687
315,0.315,-0.002938,0.002923,-0.003359,0.002441,-0.002944,-0.040926,-0.000495,0.010401
316,0.316,-0.003376,0.003479,-0.006898,-0.003279,-0.005189,-0.049195,-0.018553,0.013598
317,0.317,-0.005020,-0.003240,-0.005713,-0.002385,0.002523,-0.036978,-0.025793,0.012573
318,0.318,-0.001430,-0.009629,-0.010440,-0.004528,0.001417,-0.016817,-0.023576,0.013445
319,0.319,-0.001746,-0.008747,-0.008728,-0.000897,0.004022,0.007723,-0.025591,0.010957
320,0.320,-0.005792,-0.007535,-0.004491,0.002581,0.007139,0.030228,-0.027448,0.003579
321,0.321,-0.002923,-0.012764,-0.006175,0.002147,0.007887,0.046490,-0.021866,-0.000080
322,0.322,-0.004799,-0.003460,-0.001438,0.007455,0.000849,0.007289,-0.020170,0.003527
323,0.323,-0.006519,-0.004663,-0.007192,0.008194,0.001595,-0.062181,-0.015584,-0.004729
324,0.324,-0.001500,-0.007899,-0.003464,0.007761,-0.001037,-0.090701,-0.011512,-0.003698
325,0.325,-0.003603,-0.002668,0.000090,0.006143,-0.000463,-0.047657,-0.010333,-0.002669
326,0.326,0.000535,-0.005385,0.004322,-0.001576,0.004357,0.006891,-0.007117,-0.003482
327,0.327,-0.003613,-0.001174,-0.002092,0.001701,0.002586,0.070910,0.002364,-0.007674
328,0.328,-0.003202,0.004067,-0.001237,-0.001279,0.005376,0.079453,-0.003885,0.002355
329,0.329,-0.004502,0.006089,-0.000561,-0.000357,0.002749,0.071599,-0.000651,0.001061
330,0.330,-0.000729,0.007789,0.000117,0.000569,0.002997,0.064442,0.000383,0.004840
331,0.331,-0.001372,0.009477,-0.001585,0.004352,0.001728,0.057967,0.006832,0.005900
332,0.332,-0.000338,0.002694,0.001273,0.009310,-0.000900,0.075349,0.009389,0.004949
333,0.333,-0.003366,-0.003758,0.002793,0.005150,0.002209,0.080544,0.005689,-0.005326
334,0.334,-0.001663,-0.006316,0.000589,-0.000006,0.000073,0.056320,0.005037,-0.003933
335,0.335,0.002730,-0.010063,0.001757,-0.009240,-0.002572,0.025509,0.003367,-0.005091
336,0.336,-0.003205,-0.009420,0.002752,-0.002901,0.000543,0.005537,-0.000673,0.000501
337,0.337,0.000322,-0.005226,0.005938,0.004954,0.000110,0.001995,0.002885,-0.000518
338,0.338,-0.003426,-0.009327,0.007938,-0.002258,0.001045,-0.001198,-0.000153,-0.003247
339,0.339,-0.001938,-0.004638,0.002161,-0.010661,-0.002224,-0.009966,-0.000476,-0.002420
340,0.340,-0.005015,-0.002994,-0.000395,-0.011618,-0.004309,-0.018021,-0.003006,-0.000233
341,0.341,-0.002686,-0.001353,0.009560,-0.004284,0.001422,-0.015531,0.002248,-0.003783
342,0.342,-0.005943,-0.001920,0.002604,-0.006942,-0.002822,-0.004232,0.000051,-0.004242
343,0.343,-0.005815,0.003074,-0.011302,-0.012832,0.000893,-0.014291,0.003607,-0.000091
344,0.344,-0.007885,-0.004780,-0.009488,-0.024302,-0.002648,-0.012373,0.007836,-0.004738
345,0.345,-0.004890,0.002418,-0.004461,-0.029339,-0.003117,-0.020813,0.002597,-0.005141
346,0.346,-0.006287,-0.000359,-0.006025,-0.030830,0.003357,-0.022347,0.007503,-0.004518
347,0.347,-0.000754,0.003799,0.000874,-0.015568,0.002546,-0.032029,0.000568,-0.002895
348,0.348,0.001570,0.005936,0.002022,-0.005364,0.003232,-0.051027,0.007007,0.002265
349,0.349,0.005073,0.005189,-0.001234,-0.003444,0.001185,-0.092176,0.004490,0.004371
350,0.350,0.002827,0.005624,-0.002287,-0.005051,-0.004605,-0.097942,0.006716,0.007484
351,0.351,0.002109,0.007237,0.000380,0.002671,-0.009887,-0.049872,0.004708,0.004672
352,0.352,0.003589,0.003603,0.004571,-0.001288,-0.007885,-0.017512,0.007771,0.005237
353,0.353,0.002876,0.005710,-0.003925,0.005048,-0.002175,0.011813,0.009480,-0.001656
354,0.354,-0.000360,0.001730,0.003815,0.008323,0.001497,0.027773,0.007982,-0.002631
355,0.355,0.001480,-0.000900,0.004790,0.019860,-0.002111,0.032563,0.003768,-0.009017
356,0.356,0.007051,-0.004019,0.000190,0.024433,0.002073,0.037029,0.011396,-0.006444
357,0.357,-0.005990,-0.002052,-0.000688,0.011914,-0.004372,0.040984,0.010401,-0.008603
358,0.358,0.006860,0.003654,0.001479,0.006840,0.001573,0.015665,0.020732,0.000751
359,0.359,-0.001775,0.002773,0.000767,0.005313,-0.008346,0.018936,0.016682,0.009608
360,0.360,0.002635,0.003426,-0.002322,0.006657,-0.017938,0.010192,0.015500,0.022188
361,0.361,0.006533,0.002723,0.001698,0.010363,-0.014187,0.018369,0.007719,0.040866
362,0.362,0.005190,0.003199,0.008435,0.015935,-0.008618,0.020774,0.010760,0.038584
363,0.363,-0.000538,0.000301,0.007555,0.016939,0.002841,-0.003900,0.000424,0.036469
364,0.364,0.002367,0.000772,-0.000259,0.002879,0.004274,-0.007067,-0.009241,0.026391
365,0.365,0.006801,-0.001456,0.004948,-0.007294,0.011107,-0.009856,-0.005528,0.017161
366,0.366,0.002456,-0.001816,0.000355,-0.001743,0.014728,-0.001616,-0.004524,-0.008164
367,0.367,0.006064,-0.000820,-0.009149,-0.010241,0.013643,0.010842,-0.003538,-0.026223
368,0.368,0.003928,0.004405,-0.005458,-0.027209,0.010586,0.017557,-0.006266,-0.036008
369,0.369,0.005523,0.002197,-0.002271,-0.016097,0.013278,0.015660,-0.008826,-0.033104
370,0.370,0.003746,0.005759,0.000748,-0.010056,0.012418,0.010240,-0.014084,-0.030383
371,0.371,0.004174,0.010003,-0.000114,-0.004526,0.010180,0.012110,-0.020522,-0.018047
372,0.372,0.009181,0.007141,-0.002659,-0.006280,0.006557,0.007711,-0.012753,-0.015878
373,0.373,0.009790,0.000400,-0.001987,-0.001779,0.003419,0.003751,-0.003293,-0.022003
374,0.374,0.010237,-0.000418,-0.001305,0.005088,-0.005485,-0.005036,-0.007027,-0.031354
375,0.375,0.003760,0.003834,-0.007033,0.006194,-0.009313,-0.008253,-0.014807,-0.029707
376,0.376,0.002876,-0.006117,-0.004809,0.011682,-0.001617,-0.007180,-0.011767,-0.025171
377,0.377,0.005049,-0.004736,0.004518,0.008513,0.001363,-0.007916,-0.012620,-0.021128
378,0.378,0.000126,-0.010961,-0.001733,0.007539,0.005853,-0.010263,-0.010084,-0.012344
379,0.379,0.003161,-0.005341,0.003864,0.011650,0.003249,-0.007895,-0.006376,0.004743
380,0.380,0.001461,-0.004279,0.004899,0.018499,0.008434,-0.015543,-0.007073,0.002375
381,0.381,-0.000057,-0.001520,-0.001512,0.006258,0.013306,-0.010231,-0.002856,0.017945
382,0.382,-0.001224,-0.004013,-0.000652,-0.005606,0.009096,-0.009362,-0.004548,0.015914
383,0.383,0.000820,-0.003297,0.003102,0.005064,0.011989,-0.003428,-0.002012,0.025197
384,0.384,0.001187,0.001649,0.005165,0.003732,0.004223,-0.008680,0.000197,0.023449
385,0.385,0.002915,-0.000001,0.005698,0.004942,0.005227,-0.015122,0.006636,0.018800
386,0.386,-0.000084,0.001725,0.006225,0.005952,-0.008519,-0.019374,0.003931,0.022775
387,0.387,0.003520,0.001257,0.003713,0.006924,-0.017878,-0.017243,-0.000294,0.016439
388,0.388,-0.001497,0.001637,-0.003195,0.000466,-0.012875,-0.028030,0.004954,0.015351
389,0.389,0.000603,0.001339,-0.000110,-0.003793,-0.032911,-0.051201,0.000053,0.012252
390,0.390,0.000162,0.007137,-0.002778,-0.001633,-0.030271,-0.041610,0.004273,0.000039
391,0.391,-0.001454,0.014956,0.003178,0.006107,-0.027965,-0.008888,0.003753,-0.011819
392,0.392,-0.003904,0.005528,0.010149,-0.001196,-0.030208,0.012825,0.002223,-0.013345
393,0.393,-0.000771,0.006760,0.007474,-0.007649,-0.032267,0.032543,0.001024,-0.020305
394,0.394,-0.002712,0.003595,0.001577,-0.005143,-0.026699,0.043122,0.003882,-0.024063
395,0.395,-0.000083,0.000593,-0.002112,-0.008896,-0.011491,0.052695,0.001311,-0.018533
396,0.396,-0.003874,-0.003921,-0.000045,-0.019566,0.006942,0.049627,-0.003976,-0.007066
397,0.397,-0.000222,0.003906,-0.000512,-0.021111,0.024187,0.041361,-0.009254,-0.002536
398,0.398,-0.002314,0.002940,-0.000972,-0.036326,0.035367,0.023991,-0.009970,0.004363
399,0.399,-0.002537,0.005694,-0.001424,-0.046431,0.025255,-0.000833,-0.004256,0.013130
400,0.400,-0.000556,0.008270,-0.004423,-0.033361,0.012274,-0.017391,0.002641,0.016322
401,0.401,-0.001461,0.010514,-0.003191,-0.014708,0.013994,-0.014640,0.001761,0.017332
402,0.402,-0.006426,0.008527,-0.000607,-0.002322,0.015533,-0.000999,0.000891,0.007001
403,0.403,-0.004294,0.006859,-0.001568,0.013276,0.016904,0.006232,0.001549,0.000043
404,0.404,-0.007238,-0.001912,-0.003887,0.027531,0.008120,0.004003,0.003563,-0.006244
405,0.405,-0.000705,-0.008150,-0.003163,0.025697,-0.006753,0.006004,-0.000692,-0.009483
406,0.406,-0.001444,-0.015913,-0.001430,0.017259,-0.029249,0.004089,0.008085,-0.010508
407,0.407,0.000864,-0.018938,0.002327,0.015741,-0.044129,-0.001055,0.004336,-0.007800
408,0.408,-0.005468,-0.021624,0.005915,0.014372,-0.030424,-0.002670,0.005333,-0.003569
409,0.409,0.000558,-0.015672,0.002895,0.010619,-0.008080,-0.009733,0.006333,0.000168
410,0.410,0.005908,-0.004140,-0.002667,0.002806,0.018983,-0.003590,-0.000117,-0.006247
411,0.411,-0.001766,-0.005802,0.001068,0.003792,0.029809,-0.006913,0.005758,-0.007081
412,0.412,-0.002672,0.001830,0.000418,0.004605,0.052845,-0.022766,0.001983,0.004420
413,0.413,0.001999,0.000490,0.002129,0.005425,0.050021,-0.034061,-0.004495,-0.000695
414,0.414,-0.003823,-0.003219,-0.004289,0.007589,0.036396,-0.040300,-0.000328,0.006854
415,0.415,-0.000008,-0.002192,-0.000053,0.006852,0.009247,-0.023693,0.003323,0.008147
416,0.416,-0.000583,-0.003205,0.002155,0.012540,-0.023475,-0.012657,-0.000294,0.011817
417,0.417,0.001199,-0.007784,0.000127,0.008761,-0.018984,-0.006661,0.005395,0.003980
418,0.418,-0.001573,-0.013709,0.003157,0.006657,-0.015007,-0.012293,0.003120,0.007000
419,0.419,-0.001984,-0.009977,0.000275,0.007072,0.003181,-0.014040,0.003707,0.015461
420,0.420,-0.001541,-0.005069,-0.003281,0.009868,0.019677,-0.006500,0.010549,0.018727
421,0.421,0.003125,-0.003219,-0.001088,0.011658,0.025507,0.007956,0.012830,0.018307
422,0.422,0.002886,-0.001545,-0.008035,0.008047,0.028452,0.025964,0.013590,0.015366
423,0.423,0.002651,0.003676,-0.013300,0.009177,0.020404,0.023504,0.005739,0.010903
424,0.424,-0.000465,0.004327,-0.008746,0.013862,0.003221,0.012274,0.008738,-0.000147
425,0.425,-0.000034,0.005980,-0.002844,0.023284,-0.007874,0.006120,0.009532,-0.010691
426,0.426,-0.003497,0.005450,0.004067,0.021874,-0.001702,-0.021844,0.006937,-0.014630
427,0.427,-0.001213,0.005923,0.001349,0.007960,-0.007175,-0.017999,0.007569,-0.015699
428,0.428,0.001737,0.001676,-0.001204,-0.012546,-0.012117,-0.014450,0.009557,-0.014560
429,0.429,0.000816,-0.001213,0.002494,-0.026280,-0.025829,0.008590,0.000048,-0.015431
430,0.430,-0.003663,0.004548,0.003154,-0.043563,-0.053580,0.017435,-0.006904,-0.008850
431,0.431,0.004717,0.003881,-0.005147,-0.054760,-0.041554,0.014769,-0.008099,0.002452
432,0.432,-0.003020,0.000339,-0.004161,-0.052780,-0.030505,0.012491,-0.018434,0.016460
433,0.433,-0.001975,0.000851,0.001049,-0.047275,-0.007212,-0.012081,-0.019813,0.029604
434,0.434,-0.001051,0.004915,0.005581,-0.021967,0.013919,-0.028345,-0.013579,0.024641
435,0.435,-0.003517,0.004410,0.001309,0.010768,0.022325,-0.007408,-0.016823,0.017120
436,0.436,-0.001238,0.005602,0.001951,0.006295,0.029849,0.028385,-0.013815,0.010271
437,0.437,-0.006083,0.005272,-0.005869,0.002346,0.027817,0.042842,-0.014699,-0.006057
438,0.438,0.000919,0.004940,-0.006923,0.005850,0.017769,0.064904,-0.005264,-0.017160
439,0.439,-0.001722,0.010191,-0.004265,0.009011,0.012268,0.076802,-0.004114,-0.023195
440,0.440,-0.004197,0.004946,0.001614,0.006094,0.003849,0.073294,-0.005163,-0.028734
441,0.441,-0.001932,0.001399,-0.000633,0.003376,-0.006777,0.043583,-0.002149,-0.010092
442,0.442,0.001682,0.003095,-0.001355,0.005765,-0.010815,0.031853,0.000532,0.002276
443,0.443,0.002245,0.001398,-0.003094,0.003601,-0.007086,0.021168,0.009978,0.008895
444,0.444,0.001792,-0.002160,-0.001459,-0.006522,-0.010284,-0.015017,0.008780,-0.001254
445,0.445,0.003368,0.000886,-0.002026,0.006506,-0.000766,-0.039004,0.003206,0.000582
446,0.446,0.003769,-0.000308,-0.002427,-0.001977,-0.014566,-0.051997,0.000182,0.002238
447,0.447,-0.000079,0.000021,-0.005363,-0.015874,-0.023782,-0.039985,0.001057,0.000671
448,0.448,0.000487,0.002381,-0.001187,-0.010318,-0.021999,-0.029014,-0.001448,-0.003444
449,0.449,0.004767,-0.002708,-0.001733,-0.008656,-0.008026,-0.025695,-0.003605,-0.012314
450,0.450,0.004307,-0.003387,0.000764,0.001969,0.001359,-0.022743,-0.011344,-0.006814
451,0.451,0.009084,0.006077,-0.002320,0.000606,0.006484,-0.008988,-0.012306,0.000383
452,0.452,0.007424,0.002009,-0.003546,-0.003102,0.014124,-0.001646,-0.011412,0.001152
453,0.453,0.002217,0.000813,0.002169,0.009443,0.015474,0.000657,-0.005442,0.000231
454,0.454,0.001570,-0.000218,0.004674,0.014562,0.019198,0.010936,-0.010640,-0.009841
455,0.455,0.002114,-0.003286,0.003964,0.019196,0.018191,0.012929,0.000078,-0.011281
456,0.456,0.001637,-0.002460,0.001905,0.017918,0.015147,0.018168,-0.007467,-0.007632
457,0.457,0.003185,-0.006719,0.008807,0.019176,0.010551,0.016819,-0.003330,-0.006692
458,0.458,-0.003725,-0.006066,0.007932,0.013664,0.016422,0.004490,-0.002073,0.000493
459,0.459,-0.002696,-0.006769,0.008751,0.008472,0.009471,-0.007108,0.010507,0.006822
460,0.460,-0.001837,-0.001029,0.000270,0.009350,-0.004543,0.003853,0.008877,0.019575
461,0.461,-0.000975,0.001167,0.005828,0.003450,-0.010608,0.008260,0.007424,0.032463
462,0.462,-0.001641,-0.000867,0.006812,0.005676,-0.016183,0.004842,0.008837,0.034018
463,0.463,0.001911,-0.001383,0.002218,0.010603,-0.017882,-0.000504,0.010088,0.016976
464,0.464,-0.002325,0.002661,0.001356,0.004875,-0.016411,-0.005599,0.009131,0.001293
465,0.465,0.000543,0.009409,0.000672,0.004235,-0.009577,-0.017700,0.010204,-0.008961
466,0.466,-0.007246,0.002964,0.005581,0.009176,-0.005998,-0.032885,0.018718,-0.029525
467,0.467,-0.004047,-0.004825,0.001361,0.012263,-0.007193,-0.018668,0.024355,-0.037733
468,0.468,-0.009304,-0.001778,-0.000324,0.010603,-0.004319,-0.005644,0.023399,-0.050177
469,0.469,-0.006617,0.006692,0.002234,0.008107,0.000081,0.006162,0.014992,-0.052462
470,0.470,-0.007495,0.009930,0.002587,0.002045,0.004162,0.007632,0.011835,-0.038330
471,0.471,-0.006867,0.006915,0.004623,-0.002169,0.000318,0.006245,0.006657,-0.025385
472,0.472,-0.004879,0.002372,-0.001115,-0.001486,-0.000438,-0.010172,-0.001730,-0.023775
473,0.473,-0.003241,0.008318,0.001426,0.000539,-0.002200,-0.007965,0.001550,-0.016261
474,0.474,-0.004989,-0.001636,0.000754,0.002225,-0.008717,-0.009980,0.002619,-0.009439
475,0.475,-0.003527,-0.000251,-0.007013,-0.006569,-0.016615,-0.004412,-0.001898,0.004317
476,0.476,0.003334,-0.009020,0.000293,-0.012819,-0.024024,-0.023047,-0.001016,0.006044
477,0.477,-0.012471,-0.012208,-0.000519,-0.016033,-0.032632,-0.035418,-0.001668,0.000836
478,0.478,-0.005953,-0.019456,-0.003021,-0.015026,-0.027217,-0.028819,-0.009419,0.005276
479,0.479,-0.008065,-0.014874,-0.006710,-0.008619,-0.032621,-0.014584,-0.010400,0.012096
480,0.480,0.019753,-0.010623,-0.000240,-0.004403,-0.046795,-0.031275,-0.001914,0.015698
481,0.481,0.023540,-0.005360,0.002335,0.007091,-0.077540,-0.037853,0.003676,0.018804
482,0.482,-0.009377,-0.003317,0.003047,0.005395,-0.082019,-0.031785,0.004701,0.019725
483,0.483,-0.005096,0.000928,0.006637,0.013016,-0.046011,-0.011358,0.007408,0.022356
484,0.484,-0.009100,-0.003116,-0.001600,0.006108,-0.012176,0.013253,0.013332,0.012816
485,0.485,0.001605,-0.001574,-0.000526,-0.005164,0.036380,0.029560,0.008099,0.011555
486,0.486,-0.001740,-0.000379,-0.003518,-0.009636,0.068680,0.038272,0.004556,0.012489
487,0.487,-0.004737,-0.000706,-0.000761,-0.008206,0.074402,0.040893,0.002865,0.009351
488,0.488,-0.002157,0.004374,-0.003257,-0.014411,0.079589,0.038425,-0.001196,0.008397
489,0.489,-0.004658,0.002349,-0.001025,-0.026885,0.074764,0.036114,-0.000687,0.004055
490,0.490,-0.002581,0.005400,0.001056,-0.035312,0.070259,0.021773,-0.004917,0.004626
491,0.491,-0.000682,0.003702,0.004177,-0.039834,0.066258,0.012310,-0.004418,0.000974
492,0.492,0.001054,0.003183,0.005944,-0.027251,0.048031,-0.009872,-0.012205,0.010384
493,0.493,-0.000769,-0.002925,0.002437,-0.001860,0.024915,-0.018880,-0.022527,0.022872
494,0.494,-0.005458,0.002971,0.002811,0.016208,0.009938,-0.016397,-0.026588,0.027961
495,0.495,0.004062,0.000749,0.001665,0.012971,0.001753,-0.004286,-0.027777,0.032551
496,0.496,-0.004860,0.004285,-0.002517,0.015832,-0.000667,0.002092,-0.024570,0.031248
497,0.497,-0.001766,0.007311,-0.010095,0.013098,-0.011873,0.012073,-0.023573,0.035016
498,0.498,-0.000870,-0.000313,-0.007017,0.015447,-0.013939,0.013822,-0.013280,0.031846
499,0.499,0.003575,0.004929,-0.006141,0.013238,-0.008378,0.018796,-0.011963,0.016146
500,0.500,0.005989,0.004074,-0.001877,0.011221,0.000094,0.011082,-0.005742,0.004982
501,0.501,-0.002595,0.003229,-0.001170,0.009412,0.010795,-0.004249,-0.004766,-0.009260
502,0.502,0.002877,0.003912,-0.003177,0.004412,-0.001673,-0.014486,0.000442,-0.007461
503,0.503,-0.004502,0.003248,-0.001465,-0.006184,-0.016832,-0.016427,-0.006025,-0.016009
504,0.504,0.001828,-0.000964,-0.001946,-0.015754,-0.022859,-0.031717,-0.010298,-0.026754
505,0.505,0.002572,0.004284,0.003829,-0.019414,-0.013480,-0.033821,-0.008147,-0.022775
506,0.506,0.000273,0.002250,0.003178,-0.016155,-0.004946,-0.039492,-0.004645,-0.011490
507,0.507,0.002211,0.005300,0.003874,-0.004622,-0.015510,-0.064968,0.003579,-0.003864
508,0.508,0.003813,0.002422,-0.000330,0.006063,-0.027925,-0.090451,0.004541,-0.002444
509,0.509,0.000850,0.004961,-0.000818,0.007456,-0.012611,-0.093782,-0.002812,0.011570
510,0.510,-0.002783,0.003773,0.006979,0.003767,-0.002401,-0.048879,0.007434,0.006181
511,0.511,0.001377,0.010209,0.003767,0.007019,0.006942,-0.003778,0.000433,0.001298
512,0.512,0.005374,0.011060,-0.001468,0.006038,0.018823,0.049112,0.004095,-0.009176
513,0.513,-0.000429,0.008539,-0.007886,-0.002365,0.026459,0.084554,0.007255,-0.015973
514,0.514,-0.001155,0.006355,-0.008726,-0.001279,0.025131,0.103751,0.010243,-0.022114
515,0.515,0.000829,-0.001411,-0.008048,-0.002247,0.023962,0.109403,0.007477,-0.023041
516,0.516,-0.002260,-0.008666,-0.004506,0.002338,0.016200,0.093397,0.006574,-0.021936
517,0.517,-0.001791,-0.015084,-0.008744,-0.005412,0.013182,0.088563,0.008726,-0.022717
518,0.518,0.003933,-0.015927,-0.003505,0.004097,0.006770,0.075295,0.003764,-0.021800
519,0.519,0.010846,-0.013726,0.002917,0.012931,-0.006067,0.047341,0.000656,-0.016470
520,0.520,0.004397,-0.005930,0.000367,0.016163,-0.033951,0.021948,-0.003475,-0.015681
521,0.521,0.006918,-0.004897,0.005589,0.017168,-0.037804,0.005519,-0.001006,-0.006064
522,0.522,0.004208,-0.003195,0.004223,0.014619,-0.028797,-0.013942,0.000944,0.001373
523,0.523,0.002019,-0.005906,0.003527,0.008185,-0.017914,-0.011079,0.003909,-0.002543
524,0.524,0.006947,-0.003369,-0.002250,0.005643,-0.008030,-0.013774,0.010271,0.006401
525,0.525,0.001221,-0.002704,0.001449,0.006313,0.006928,-0.036064,0.012918,0.007561
526,0.526,0.003456,-0.003388,-0.000613,0.001399,0.015124,-0.044798,0.005076,0.006699
527,0.527,0.004174,0.000815,0.001055,-0.000300,0.007912,-0.052835,0.001980,0.004138
528,0.528,0.007261,-0.005628,-0.001846,-0.007911,-0.012318,-0.055087,-0.000776,0.010199
529,0.529,0.006809,0.000289,0.001684,-0.010947,-0.020368,-0.025689,0.008653,0.009663
530,0.530,0.005349,0.002500,-0.000541,-0.008223,-0.027586,-0.005585,0.004900,0.007773
531,0.531,0.008493,-0.002386,-0.000222,-0.003989,-0.043109,-0.001924,0.005900,0.003672
532,0.532,0.003011,-0.001839,-0.004472,-0.003299,-0.032945,0.007999,0.004875,0.003286
533,0.533,0.006802,-0.001298,-0.006192,-0.005321,-0.016165,0.005274,0.004023,0.004918
534,0.534,0.007557,0.002287,-0.002661,-0.007005,-0.000509,0.002752,0.003173,0.001962
535,0.535,0.000712,0.001970,-0.000493,0.000608,0.013845,0.015316,0.010109,0.006759
536,0.536,-0.000023,0.004027,0.001509,0.010073,0.023321,0.017720,0.009264,0.009858
537,0.537,0.006018,0.002189,0.007227,0.013776,0.031965,0.019970,0.010119,0.010419
538,0.538,-0.003842,0.003227,-0.002269,0.016984,0.033640,0.018367,0.007927,0.008953
539,0.539,0.000344,0.005615,-0.013622,0.001240,0.026843,0.013604,0.008618,0.008659
540,0.540,-0.003246,0.005805,-0.012116,-0.014338,0.028137,0.003205,0.004402,0.002249
541,0.541,0.002472,0.009719,0.008691,0.016265,0.015698,0.002075,0.000361,-0.008061
542,0.542,-0.004667,0.010241,0.011568,0.038259,0.007282,-0.001452,-0.000115,-0.026174
543,0.543,-0.003676,0.005526,0.008868,0.018323,-0.006606,-0.011661,-0.003130,-0.028562
544,0.544,-0.000988,0.002488,0.001602,0.014813,-0.004815,-0.026834,-0.007844,-0.035169
545,0.545,-0.004561,0.002999,0.008207,0.011639,-0.013367,-0.049303,-0.004766,-0.020982
546,0.546,-0.006439,-0.001730,0.006186,-0.003225,-0.011912,-0.058103,-0.000658,-0.011699
547,0.547,-0.002044,-0.005944,0.008050,-0.005922,-0.010573,-0.039010,0.000917,0.000104
548,0.548,0.002156,-0.003059,0.002975,-0.018269,-0.016865,-0.021796,-0.001227,0.020021
549,0.549,0.002816,-0.007787,0.004501,-0.033846,-0.022502,-0.006258,-0.005897,0.044665
550,0.550,-0.003975,-0.004728,0.005866,-0.044006,-0.017358,-0.004270,-0.007527,0.060995
551,0.551,-0.006882,-0.009971,0.004692,-0.031010,-0.018326,0.001255,-0.004583,0.069702
552,0.552,-0.011326,-0.010649,0.001493,-0.025956,-0.010707,-0.003884,0.001238,0.055902
553,0.553,-0.005273,-0.001174,0.002519,-0.015305,-0.013953,0.009957,0.000635,0.038549
554,0.554,-0.002954,0.002882,-0.002038,-0.002814,-0.011432,0.019267,0.005614,0.013742
555,0.555,-0.004861,-0.000846,-0.001177,0.002215,-0.021071,0.027720,0.007388,-0.022743
556,0.556,-0.001691,0.002365,-0.003355,0.000648,-0.022409,0.026185,-0.000126,-0.047050
557,0.557,-0.003265,0.001339,-0.002656,-0.011893,-0.005469,0.022077,0.013676,-0.077938
558,0.558,-0.001633,0.005896,-0.002126,-0.010237,0.011633,0.003041,0.011920,-0.089872
559,0.559,-0.004569,0.001651,-0.000426,-0.011808,0.018082,-0.005189,0.000185,-0.064576
560,0.560,-0.002439,0.003839,-0.002958,-0.010510,0.015925,-0.002904,-0.007328,-0.041646
561,0.561,-0.004884,-0.003961,-0.005147,-0.019365,0.025107,0.012631,-0.011269,-0.008745
562,0.562,-0.000221,-0.002952,-0.005486,-0.022632,0.023309,0.014716,-0.009979,-0.004429
563,0.563,0.000376,-0.000244,-0.002950,-0.006953,0.030844,0.020501,-0.008873,0.007333
564,0.564,0.004506,0.000598,0.002301,0.013278,0.029450,0.019058,-0.009791,0.003718
565,0.565,0.001012,0.001262,0.002982,0.005093,0.023150,0.011666,-0.012414,0.013468
566,0.566,0.001400,0.001919,-0.003435,0.002649,0.026303,0.010462,-0.004556,0.010518
567,0.567,0.000263,0.004943,-0.004259,0.000375,0.020970,0.001721,-0.003476,0.002324
568,0.568,0.006055,-0.000337,0.001011,0.010443,0.014435,-0.003890,-0.004264,-0.005011
569,0.569,0.006932,-0.001055,0.005943,0.023391,0.006527,0.001271,-0.006751,-0.007261
570,0.570,0.003233,0.000592,-0.000968,0.018242,-0.000898,-0.005248,-0.001468,-0.005269
571,0.571,-0.000323,0.005795,-0.000095,0.013614,-0.011386,-0.006162,-0.003476,0.011437
572,0.572,-0.002018,0.005088,0.004170,0.012227,-0.021175,-0.013194,-0.006503,0.013611
573,0.573,-0.000339,0.005572,0.000481,0.013389,-0.020105,-0.023663,-0.005967,0.015597
574,0.574,-0.001881,0.002676,0.002538,0.007790,-0.023408,-0.025192,-0.004421,0.013672
575,0.575,0.002319,0.009438,0.000863,0.004704,-0.011973,-0.036746,-0.004731,0.011906
576,0.576,-0.002974,0.000986,0.001380,0.000085,-0.016579,-0.047656,-0.001834,0.007277
577,0.577,-0.002354,-0.006797,-0.002159,-0.000827,-0.006955,-0.035409,-0.004358,0.003164
578,0.578,-0.002920,-0.009852,-0.000954,-0.000204,0.001850,-0.020445,-0.006728,0.001957
579,0.579,-0.008223,-0.009010,-0.000600,0.010386,0.007451,0.001812,-0.005714,0.005173
580,0.580,-0.006258,-0.014918,0.001279,0.008800,0.012706,0.004451,-0.001479,0.002159
581,0.581,-0.002106,-0.006441,0.005863,0.007386,0.006263,-0.009432,0.000216,0.003058
582,0.582,-0.001690,-0.003216,0.001649,0.008524,-0.006622,-0.011948,0.003096,0.009027
583,0.583,-0.006525,0.002043,0.002163,0.005258,-0.019678,-0.014254,0.004620,0.012794
584,0.584,-0.008322,-0.000663,0.000646,0.002162,-0.014638,-0.000154,0.002426,0.007931
585,0.585,-0.012492,0.001875,0.002850,0.006676,-0.019245,-0.009581,-0.002320,0.001042
586,0.586,-0.009050,0.001204,-0.001882,-0.001146,-0.009632,-0.035071,0.001891,-0.007359
587,0.587,-0.006968,0.004764,-0.004917,-0.000160,-0.015910,-0.068016,-0.001008,-0.004085
588,0.588,-0.007422,0.000527,-0.003207,-0.002892,-0.014912,-0.028403,0.003699,0.005447
589,0.589,-0.005011,-0.000005,-0.010978,-0.002071,-0.011888,-0.012645,0.001975,0.006697
590,0.590,-0.001242,0.002517,-0.007765,-0.010573,-0.003456,0.001593,-0.002127,0.012351
591,0.591,-0.004928,-0.003587,-0.008779,-0.011644,0.011405,0.041201,0.000359,0.015473
592,0.592,-0.007260,0.002332,-0.009605,-0.006435,0.021528,0.067626,0.005370,0.007104
593,0.593,-0.006215,0.006054,-0.007054,0.001999,0.019634,0.072236,0.003275,0.008194
594,0.594,-0.000597,0.001138,-0.006374,0.005165,-0.005755,0.085311,0.000148,0.001007
595,0.595,-0.013593,-0.003090,-0.002821,0.008162,-0.038532,0.081304,0.005314,0.001946
596,0.596,0.006738,0.000970,-0.001133,0.005418,-0.025287,0.077639,0.008784,-0.000470
597,0.597,-0.001532,-0.003781,0.000546,0.009611,-0.005277,0.047784,0.010400,-0.004065
598,0.598,0.005603,-0.004303,-0.002001,-0.000401,0.027594,0.043862,0.014393,-0.001893
599,0.599,0.007669,0.003290,0.004077,0.006515,0.040832,0.033040,0.012803,-0.003442
600,0.600,0.009561,0.002256,0.001522,-0.004836,0.060832,0.016660,0.010528,-0.006171
601,0.601,0.003840,-0.000470,0.003713,-0.018735,0.064434,-0.016289,0.009279,-0.002482
602,0.602,0.005394,0.002057,0.005728,-0.009448,0.034714,-0.038220,0.003478,0.001867
603,0.603,0.003738,-0.000158,0.002669,-0.000990,0.014822,-0.034257,-0.004336,0.002463
604,0.604,-0.000446,0.000517,0.002155,-0.002480,0.011339,-0.023339,-0.011638,0.009305
605,0.605,0.000622,0.003562,0.000617,-0.012061,0.008194,-0.000228,-0.008960,0.006655
606,0.606,0.003724,0.003054,0.000929,0.004409,0.005381,0.014782,-0.006448,0.005850
607,0.607,0.000571,0.003563,0.007331,0.015620,-0.002667,0.017611,-0.008677,-0.002577
608,0.608,0.001313,0.000518,0.008155,0.013628,-0.004920,0.005377,-0.008005,0.003030
609,0.609,0.000377,0.003388,0.007293,0.008069,-0.002546,-0.001141,-0.014950,0.004079
610,0.610,-0.001925,-0.002368,0.011010,0.003023,-0.008443,-0.031684,-0.010400,-0.002262
611,0.611,0.000030,-0.008299,0.006092,-0.001512,-0.021284,-0.097738,0.000740,-0.008054
612,0.612,0.004194,-0.006112,-0.002210,0.002575,-0.039698,-0.107113,-0.003855,-0.017871
613,0.613,0.007004,-0.001220,0.000986,-0.001118,-0.037146,-0.081122,0.003056,-0.013639
614,0.614,0.007449,-0.001737,-0.002067,0.004524,-0.021432,-0.041918,0.001848,0.000414
615,0.615,0.002327,-0.002249,-0.004775,0.003591,-0.007098,-0.006268,0.005035,0.006174
616,0.616,0.002958,0.005527,-0.007314,0.002822,0.002301,0.026163,0.006024,0.001274
617,0.617,0.005959,0.011107,-0.002080,0.003760,0.010821,0.032025,0.003302,-0.000086
618,0.618,0.007617,0.014148,0.001468,0.003163,0.018468,0.005555,0.005835,-0.001287
619,0.619,0.013344,0.014985,-0.001585,-0.007415,0.017124,-0.028199,0.011075,0.005109
620,0.620,0.006389,0.007201,-0.004459,-0.024267,0.005786,-0.014917,0.010396,0.002022
621,0.621,0.003674,0.001956,-0.003958,-0.030812,-0.001840,0.013065,0.000922,0.017871
622,0.622,0.001137,-0.000741,-0.000916,-0.032810,-0.005907,0.031224,0.002286,0.024594
623,0.623,0.003679,-0.008855,0.002128,-0.012987,-0.007760,0.054973,-0.001267,0.030972
624,0.624,0.007408,-0.013084,0.007704,-0.003661,-0.013998,0.058284,-0.000077,0.016880
625,0.625,0.006751,-0.006158,0.002454,0.004801,-0.019553,0.061292,-0.003276,0.007672
626,0.626,0.002556,0.002287,-0.002455,-0.002807,-0.035231,0.047803,0.001997,-0.014258
627,0.627,-0.001472,-0.005518,-0.000776,0.004133,-0.041764,0.035724,-0.002532,-0.023014
628,0.628,-0.002947,-0.010797,-0.000281,0.002965,-0.027461,0.047161,-0.003341,-0.036703
629,0.629,-0.000693,-0.011672,-0.001818,0.006203,-0.003173,0.016792,-0.007022,-0.043971
630,0.630,0.004960,-0.007476,-0.000644,0.000998,0.006729,-0.004914,-0.007653,-0.032797
631,0.631,0.001314,-0.008180,0.002231,0.007457,0.021689,-0.024574,-0.008105,-0.022636
632,0.632,0.003432,0.002455,0.001899,0.006637,0.035452,-0.020757,-0.010924,-0.013320
633,0.633,0.001838,0.003957,0.004276,0.008861,0.042756,-0.010708,-0.003083,-0.011609
634,0.634,-0.005671,-0.000124,0.003263,0.005324,0.036167,-0.007616,0.004755,-0.010072
635,0.635,-0.002517,-0.001332,0.000227,0.003636,0.026037,0.000700,0.003788,-0.006029
636,0.636,-0.003242,0.006434,-0.003665,0.001946,0.020486,0.008106,0.004674,-0.002355
637,0.637,-0.002267,0.015896,-0.004168,0.002463,0.015450,0.005992,0.002169,-0.003438
638,0.638,-0.004328,0.007088,-0.001959,0.005528,0.007863,0.000019,0.005907,-0.004519
639,0.639,0.000720,0.003867,-0.000765,0.006731,0.003809,-0.001680,0.006597,-0.007291
640,0.640,0.002560,-0.003419,-0.001097,0.010301,-0.004988,-0.006616,0.009650,-0.013285
641,0.641,0.001022,-0.006129,0.001281,0.011504,-0.003977,-0.008016,0.007964,-0.004916
642,0.642,-0.001363,-0.001898,0.003648,0.009472,-0.019702,-0.011956,0.014735,-0.004013
643,0.643,0.003865,-0.010347,-0.000570,0.005234,-0.044400,-0.013032,0.008322,-0.001118
644,0.644,0.000467,-0.007132,0.003679,-0.003558,-0.041202,-0.013985,0.010887,-0.002131
645,0.645,0.007566,0.000133,0.005390,-0.009811,-0.026345,-0.021239,0.007198,0.005459
646,0.646,0.003155,-0.000727,0.001862,-0.008783,-0.018267,-0.025823,0.000810,0.004241
647,0.647,0.000800,0.005181,-0.001158,-0.016052,-0.005940,-0.025047,0.000003,0.014361
648,0.648,0.004692,0.002957,0.001743,-0.015175,0.000644,-0.019889,0.002244,0.018250
649,0.649,0.001311,0.004968,-0.003990,-0.002298,0.002667,-0.016430,-0.004147,0.021806
650,0.650,0.000981,-0.001981,-0.001428,0.007039,0.004518,-0.019577,-0.010027,0.022680
651,0.651,-0.000538,0.002578,-0.003607,0.005355,0.002807,-0.021410,-0.015242,0.021551
652,0.652,-0.000881,0.000028,-0.007140,-0.005322,0.004295,-0.018037,-0.014535,0.009259
653,0.653,-0.001069,0.000684,-0.002897,-0.012265,0.008282,-0.015211,-0.008762,0.004068
654,0.654,-0.002097,-0.001361,0.004733,-0.006019,0.009366,-0.019312,-0.008066,-0.003652
655,0.655,-0.000097,-0.000869,0.003730,0.004293,0.006045,-0.015934,-0.007359,-0.002403
656,0.656,-0.000299,-0.000372,0.001031,0.002936,-0.009806,-0.009137,-0.014260,-0.001329
657,0.657,-0.005248,0.004343,-0.001498,0.014298,-0.034630,0.006472,-0.009662,0.001771
658,0.658,0.005535,0.000103,-0.006733,0.009765,-0.037976,0.008532,-0.008769,-0.003597
659,0.659,-0.008217,0.004137,-0.001819,0.008432,-0.029302,0.006341,-0.003485,-0.008285
660,0.660,-0.009967,0.000555,-0.001313,0.007251,-0.026707,0.011748,0.000098,-0.007569
661,0.661,-0.001399,0.001709,0.002745,0.006220,-0.019558,0.006471,0.003194,-0.009904
662,0.662,0.000236,0.001341,-0.000814,-0.003278,0.005017,-0.001391,0.006128,-0.010721
663,0.663,-0.003720,-0.002234,-0.002011,-0.007039,0.014700,-0.000278,0.009732,-0.011376
664,0.664,-0.002440,-0.001070,-0.000838,-0.010304,0.023379,0.000705,0.009454,-0.007460
665,0.665,0.000870,-0.003117,0.001010,-0.019832,0.037003,0.008332,0.008316,-0.005045
666,0.666,-0.002097,-0.000584,-0.002216,-0.011091,0.039311,0.017695,0.002615,-0.006345
667,0.667,-0.001174,-0.000915,0.004195,-0.005576,0.041458,0.021336,0.003509,-0.002569
668,0.668,-0.000254,-0.004613,-0.000378,0.008068,0.035315,0.018036,0.002884,-0.000141
669,0.669,-0.005431,-0.004259,0.000466,0.006150,0.029692,0.025205,0.006483,0.004828
670,0.670,-0.007397,-0.007124,-0.000208,0.011176,0.014430,0.029641,-0.001754,0.002707
671,0.671,-0.004306,-0.004589,0.000471,0.006560,0.000178,0.018363,0.006076,0.000934
672,0.672,-0.000204,-0.001378,0.002162,0.007852,-0.005452,-0.004721,0.003065,-0.004376
673,0.673,-0.002709,0.003349,0.002665,0.011513,-0.007194,-0.021196,0.000382,0.001994
674,0.674,-0.004882,0.007568,-0.000895,0.005876,-0.014855,-0.066253,-0.007385,0.014797
675,0.675,-0.000115,0.007052,0.006046,0.000600,-0.018962,-0.085592,-0.008375,0.016593
676,0.676,-0.004316,0.008568,0.002992,-0.007882,-0.027792,-0.056376,-0.005646,0.021594
677,0.677,-0.003795,0.004341,0.005677,-0.011135,-0.022246,-0.019233,-0.006462,0.016939
678,0.678,-0.009547,0.007211,0.001440,-0.014209,-0.012809,-0.024062,-0.005757,0.007212
679,0.679,-0.004297,0.001452,-0.002287,-0.009684,-0.001480,-0.028555,-0.006405,-0.001668
680,0.680,-0.003618,0.003654,-0.004332,-0.007210,0.000065,-0.008730,-0.004685,-0.007321
681,0.681,-0.004125,0.004337,-0.007384,-0.006591,0.009745,0.009223,-0.002959,-0.012613
682,0.682,-0.004632,0.006034,-0.002145,-0.003089,0.013516,0.018890,0.000623,-0.011796
683,0.683,-0.003123,0.004354,-0.005701,0.002615,0.007988,0.033658,0.003687,0.001046
684,0.684,-0.006184,-0.000368,0.002587,0.004767,-0.003453,0.058254,0.006586,0.010342
685,0.685,-0.003337,-0.004586,-0.003008,-0.005951,-0.001869,0.061383,0.012366,0.012031
686,0.686,-0.002347,-0.002891,-0.006064,-0.010568,0.002240,0.016309,0.018312,0.007462
687,0.687,-0.000688,-0.007608,-0.003360,-0.009248,0.013617,0.009824,0.019014,0.006121
688,0.688,0.000976,-0.004536,-0.002523,-0.005547,0.015183,0.027199,0.017009,0.004950
689,0.689,0.002290,-0.007405,-0.000339,-0.008792,0.016563,0.032400,0.012792,0.010535
690,0.690,0.002424,-0.012134,0.007432,0.006902,0.010326,0.037092,0.012294,0.017796
691,0.691,0.003570,-0.011629,0.000143,0.013456,0.011365,0.032652,0.004521,0.026225
692,0.692,0.004881,-0.002839,-0.002571,0.007349,0.010382,0.036520,-0.005798,0.027214
693,0.693,0.003476,0.000877,-0.000041,0.005508,-0.001783,0.040063,-0.009862,0.028205
694,0.694,0.001404,0.001884,-0.000738,0.000448,-0.010231,0.030261,-0.011055,0.025480
695,0.695,-0.002543,0.002901,-0.000082,0.001977,-0.011714,0.033168,-0.007855,0.012612
696,0.696,0.000289,0.007479,0.000415,-0.013230,-0.004710,0.003111,-0.008896,-0.011565
697,0.697,0.002776,0.003264,0.003282,-0.011164,0.004165,-0.008658,-0.004359,-0.014749
698,0.698,-0.001511,0.002602,0.001747,-0.012995,0.003245,-0.019380,-0.008629,-0.029585
699,0.699,0.000124,-0.000938,0.001393,-0.001100,0.006388,-0.009444,-0.003423,-0.043234
700,0.700,0.000564,-0.000415,0.001712,0.009633,0.003786,-0.006429,-0.005498,-0.035904
701,0.701,0.007432,0.006026,0.005239,0.008363,-0.000340,0.007423,-0.002504,-0.024698
702,0.702,0.000087,0.000116,-0.001717,0.014703,0.000431,0.005206,-0.004246,-0.026696
703,0.703,0.006440,0.000795,0.001311,0.007015,-0.000149,-0.010201,-0.012068,-0.021107
704,0.704,0.005516,-0.001240,0.002139,-0.000151,0.002992,-0.020170,-0.008893,-0.016040
705,0.705,0.010682,0.005699,0.001287,-0.010349,0.004779,-0.021841,-0.001657,-0.011477
706,0.706,0.004174,-0.002758,0.001953,-0.008876,0.003350,-0.013198,-0.010162,-0.007411
707,0.707,0.004940,0.005033,0.001256,-0.002503,-0.003511,-0.008423,-0.002428,-0.003671
708,0.708,0.005528,0.008090,0.004286,0.003202,-0.006492,-0.004113,0.002775,0.004154
709,0.709,0.001901,0.003534,0.003764,0.010602,0.002040,-0.002689,-0.005734,0.005197
710,0.710,-0.002416,0.001026,0.001220,0.011573,-0.003448,0.000736,-0.002568,0.006071
711,0.711,0.002735,-0.001148,0.000022,0.019458,-0.002342,0.006186,0.000432,0.008629
712,0.712,0.003330,0.000896,0.000353,0.020563,0.000462,0.009132,-0.002313,0.010851
713,0.713,-0.000980,-0.000793,-0.000676,0.021495,-0.008894,0.006825,0.005423,0.007327
714,0.714,0.002995,-0.008397,-0.001701,0.015655,-0.007588,-0.001416,0.002335,0.005656
715,0.715,-0.000649,-0.009402,0.000658,0.017939,-0.004250,-0.006797,0.003144,0.002790
716,0.716,-0.001916,-0.015812,-0.003579,0.008710,0.001129,-0.007632,-0.002832,0.000246
717,0.717,-0.000829,-0.008011,-0.003082,0.005064,-0.003327,-0.013898,0.000835,-0.000105
718,0.718,-0.001255,-0.004956,-0.007144,-0.007368,-0.007472,-0.012894,-0.001247,-0.003002
719,0.719,0.001018,-0.000374,-0.006642,-0.012340,-0.008087,-0.012070,-0.001810,-0.008778
720,0.720,-0.002128,-0.002894,-0.003610,-0.001591,-0.006014,-0.016847,0.001008,-0.006260
721,0.721,-0.001899,0.000844,0.001952,0.002562,-0.001769,-0.015047,0.006676,-0.006949
722,0.722,0.000364,-0.001159,0.004136,0.011435,-0.000084,-0.010920,0.008791,-0.006264
723,0.723,-0.004816,-0.000629,-0.002307,0.001189,0.000423,-0.018671,0.000934,-0.005735
724,0.724,-0.007121,0.003785,0.002416,-0.000609,-0.004988,-0.023902,0.000840,-0.002479
725,0.725,-0.003681,0.004312,0.006628,0.003495,-0.002793,-0.018327,-0.002307,-0.000728
726,0.726,0.000445,0.004848,-0.001844,-0.000197,0.002775,-0.013084,-0.003258,0.000848
727,0.727,-0.007274,0.003693,-0.002867,0.005402,-0.000967,-0.004594,-0.004198,0.002073
728,0.728,-0.004348,-0.000167,0.002375,0.016922,-0.000300,0.005786,-0.004965,0.000927
729,0.729,-0.003631,0.001398,-0.002192,0.006279,-0.001986,0.004500,-0.007080,0.003477
730,0.730,-0.007975,0.003643,-0.001345,0.002237,-0.002478,0.000850,-0.002929,0.003827
731,0.731,0.000369,0.004869,-0.003555,-0.001474,0.000072,-0.002270,0.003424,0.006200
732,0.732,-0.002959,0.003048,-0.002888,-0.002471,-0.006008,0.003078,0.004190,0.005527
733,0.733,-0.000028,0.002068,0.002859,0.002796,-0.011933,0.002328,0.003428,0.006720
734,0.734,-0.002853,0.005807,-0.000866,-0.005656,-0.009747,0.008334,0.001312,0.009960
735,0.735,-0.000441,-0.001124,-0.007288,-0.015991,-0.007742,0.004702,-0.000466,0.003566
736,0.736,-0.004304,-0.002131,-0.001357,-0.020082,-0.008275,0.004116,-0.003419,0.004447
737,0.737,0.000491,0.004308,0.003902,-0.008783,0.000510,0.003693,0.004284,0.010398
738,0.738,-0.001325,0.000093,0.001904,-0.001206,0.004247,0.010280,0.003196,0.018891
739,0.739,-0.000938,0.002303,0.003627,0.002820,0.001030,0.011271,0.002125,0.024505
740,0.740,-0.001562,0.004343,-0.000404,-0.013629,0.002029,0.006141,0.002906,0.023527
741,0.741,0.001361,0.006034,0.001150,-0.033954,0.008436,0.002684,0.005377,0.019000
742,0.742,-0.004347,0.003162,0.005410,-0.025848,0.005866,-0.000324,0.000071,0.013119
743,0.743,0.000767,-0.000370,0.007132,-0.018600,-0.001109,-0.004389,0.002036,0.006221
744,0.744,-0.005793,-0.001543,-0.000625,-0.020841,-0.002014,-0.012211,0.003668,-0.007794
745,0.745,-0.005074,-0.003572,-0.003811,-0.022943,0.002151,-0.013346,0.000751,-0.017930
746,0.746,-0.003012,-0.001040,-0.002770,-0.013714,0.001420,-0.018785,0.005457,-0.023503
747,0.747,-0.002472,-0.001388,0.001824,-0.018881,0.004925,-0.014481,0.002380,-0.021820
748,0.748,0.000439,-0.002423,0.001001,-0.017440,0.001836,-0.010541,0.001847,-0.020303
749,0.749,-0.000205,-0.004312,0.006267,-0.010574,0.003470,-0.008654,0.002331,-0.010671
750,0.750,-0.000842,-0.000446,0.001383,-0.006911,0.006964,-0.001195,-0.000739,-0.006956
751,0.751,0.001237,0.003598,-0.001653,-0.014764,0.004695,0.005761,-0.004658,0.000848
752,0.752,0.001463,0.007144,0.002426,-0.020079,0.004970,-0.003002,-0.001114,0.006128
753,0.753,0.000332,0.000207,-0.001113,-0.015576,0.003895,-0.004320,-0.000780,-0.000267
754,0.754,0.001233,0.001229,0.001104,-0.002809,0.001464,0.006869,0.004795,-0.004449
755,0.755,0.000791,-0.003334,0.004005,0.002665,0.003774,-0.001059,0.001075,-0.009638
756,0.756,0.002538,-0.002485,-0.000201,0.004242,-0.000520,-0.016569,-0.000939,-0.020227
757,0.757,-0.001461,-0.004696,-0.003057,-0.000434,-0.002282,-0.006661,0.006020,-0.009501
758,0.758,-0.001049,-0.012485,-0.003541,0.000837,-0.005225,0.009870,0.005214,-0.008079
759,0.759,0.002406,-0.009443,0.002578,0.014631,0.002480,0.011849,0.002730,0.000787
760,0.760,0.000117,-0.001009,0.000068,0.020129,0.003438,-0.014937,-0.002464,-0.000165
761,0.761,-0.000296,0.006758,0.002286,0.014960,0.002361,-0.011615,0.001145,-0.001120
762,0.762,-0.000709,-0.000546,-0.001237,0.016421,-0.000405,-0.002023,-0.001834,0.005374
763,0.763,0.004469,0.000268,0.000485,0.012290,-0.003007,0.006597,-0.008192,0.014915
764,0.764,-0.000835,-0.005691,-0.000008,0.013361,-0.010012,0.020136,0.001372,0.023771
765,0.765,0.005546,-0.003531,0.000499,0.018800,-0.001615,0.027230,-0.004810,0.022809
766,0.766,-0.000416,0.002857,-0.000676,0.013429,0.006107,0.020428,-0.005742,0.025894
767,0.767,0.003265,-0.001413,-0.001855,0.006858,0.007071,0.014129,-0.004657,0.023211
768,0.768,0.003917,-0.002125,0.003906,0.009258,0.006173,0.019529,-0.001856,0.017297
769,0.769,0.006948,-0.001482,0.008143,0.006925,0.006959,0.021097,0.009393,0.005787
770,0.770,0.005246,-0.005728,0.002906,0.010335,0.009113,0.028626,0.010996,-0.009457
771,0.771,0.005756,0.000671,0.003597,0.008512,-0.000217,0.027185,0.001436,-0.019626
772,0.772,0.003568,0.006567,0.001920,0.011248,-0.003950,0.020798,0.010305,-0.025218
773,0.773,0.004781,0.004330,0.002440,0.013659,-0.002952,0.008139,0.009361,-0.026904
774,0.774,0.000583,-0.003492,0.002960,0.014708,0.002262,-0.000455,0.010438,-0.019279
775,0.775,0.000115,-0.004540,-0.003122,0.013395,0.003076,0.000971,0.004067,-0.009623
776,0.776,0.006929,-0.007283,-0.005654,0.007531,0.000491,0.002282,0.001589,-0.010786
777,0.777,0.009699,-0.013238,-0.007859,0.004899,-0.003270,-0.009080,-0.000554,-0.000452
778,0.778,0.001976,-0.015475,-0.008532,0.002633,-0.003995,-0.016714,-0.004057,-0.004498
779,0.779,0.001034,-0.009094,0.000933,0.006145,-0.003536,-0.020803,-0.002318,-0.000764
780,0.780,0.000270,-0.006597,-0.000430,-0.002192,0.000478,-0.022029,0.001779,0.000278
781,0.781,-0.000490,-0.001387,0.000749,-0.005448,0.006180,-0.018826,0.007579,-0.000710
782,0.782,0.003335,0.007894,-0.000283,0.003988,0.002415,-0.013567,0.008311,-0.001546
783,0.783,0.005471,0.011584,-0.001305,0.012763,0.000350,-0.016275,0.007691,-0.002400
784,0.784,0.015059,0.005975,-0.005892,0.009555,-0.000185,-0.029168,0.002001,-0.003103
785,0.785,-0.005632,0.004944,-0.008451,0.004307,-0.009005,-0.057111,0.004259,-0.002465
786,0.786,0.003292,0.000353,-0.013725,0.001610,-0.020349,-0.101115,-0.002108,-0.005570
787,0.787,0.000715,0.004560,-0.008845,-0.000901,-0.009696,-0.071849,-0.014914,-0.003946
788,0.788,-0.001506,0.003862,-0.004642,-0.003043,-0.002765,-0.045280,-0.009272,-0.003494
789,0.789,0.000840,0.008729,-0.000604,-0.006530,-0.006488,-0.030878,-0.007537,-0.002343
790,0.790,0.003019,0.005641,-0.004178,-0.015935,-0.000923,-0.000065,-0.012067,0.000520
791,0.791,0.005038,0.000351,-0.003010,-0.014520,0.000072,0.019911,-0.010673,-0.001354
792,0.792,0.003514,0.006732,0.002552,-0.008200,0.004623,0.030761,-0.009448,0.003871
793,0.793,-0.000889,0.010924,0.000336,0.004406,0.002076,0.060593,-0.015000,0.006059
794,0.794,0.003340,0.011560,0.002355,0.002819,-0.003181,0.088588,-0.011926,-0.000374
795,0.795,0.004686,0.012220,0.002846,0.001402,-0.002509,0.092236,-0.005471,0.000473
796,0.796,0.003837,0.011697,0.005697,-0.005432,0.000537,0.082505,-0.001223,0.001160
797,0.797,0.002987,0.012219,0.004147,-0.014108,0.006966,0.073775,-0.000533,0.001845
798,0.798,0.000454,0.004454,0.003789,-0.012959,0.006127,0.071134,0.007251,0.000164
799,0.799,-0.003598,-0.003326,0.010187,-0.001307,0.009855,0.053950,0.010299,-0.005061
800,0.800,-0.004101,-0.006375,0.003735,-0.005721,0.000569,0.038470,0.001832,-0.000130
801,0.801,-0.003246,-0.012804,0.002873,-0.009616,-0.000603,0.024368,0.000800,0.005644
802,0.802,-0.000017,-0.017032,0.000664,-0.000646,0.000417,0.015182,0.001778,0.003481
803,0.803,-0.005073,-0.013308,-0.002894,0.005105,-0.000584,0.006820,0.002598,0.004191
804,0.804,0.005764,-0.008392,-0.002398,0.002217,0.004014,-0.013039,0.000025,-0.000020
805,0.805,-0.001676,-0.002624,0.000466,-0.000326,0.004884,-0.032024,-0.005248,0.002858
806,0.806,-0.005568,-0.001926,-0.003108,-0.013023,-0.000332,-0.039158,-0.007313,0.004363
807,0.807,-0.001672,-0.003933,-0.004318,-0.011016,0.004628,-0.027843,-0.009034,0.006517
808,0.808,-0.004725,0.005562,-0.003164,-0.002414,-0.002234,-0.017528,-0.007364,0.007651
809,0.809,-0.011854,-0.004063,0.000365,0.002293,-0.001320,-0.011768,-0.005870,0.005726
810,0.810,-0.003256,0.004767,-0.006574,-0.015660,-0.000417,-0.013297,-0.006232,0.000416
811,0.811,-0.004143,0.005820,-0.005554,-0.008236,0.004861,-0.036170,-0.007438,-0.003366
812,0.812,-0.005039,0.006885,0.004788,0.016601,0.002838,-0.039237,-0.012544,-0.002737
813,0.813,-0.005764,0.002354,0.011741,0.026549,0.001129,-0.024183,-0.001922,-0.001063
814,0.814,-0.006500,0.003243,0.005508,0.011807,0.002794,-0.004885,-0.003479,0.003005
815,0.815,-0.001152,0.001081,0.004516,0.014648,0.001227,0.002573,0.003424,0.008789
816,0.816,-0.004605,0.003155,0.001492,0.007484,0.000016,-0.012807,-0.007966,0.015783
817,0.817,-0.006212,0.003711,0.000663,0.000967,0.003893,-0.039173,-0.000410,0.018560
818,0.818,-0.000880,-0.005029,0.001527,0.007111,-0.003897,-0.049790,0.003598,0.017788
819,0.819,-0.005708,0.001296,-0.000648,0.009028,-0.011681,-0.033181,0.004733,0.015646
820,0.820,-0.003949,0.000357,0.001407,0.017523,-0.014716,0.006080,0.012474,0.005022
821,0.821,-0.007948,0.005671,0.001939,0.012990,-0.006233,0.022151,0.011414,-0.005614
822,0.822,-0.005357,0.006582,-0.002101,0.011652,0.004098,0.017568,0.010513,-0.009658
823,0.823,-0.004132,0.002411,0.002659,0.007948,0.002746,-0.004312,0.011317,-0.008462
824,0.824,-0.001215,0.003154,0.004374,0.002389,0.014075,-0.024180,0.006037,-0.011654
825,0.825,-0.002881,-0.000175,0.004899,-0.007732,0.010522,-0.018156,0.007182,-0.007730
826,0.826,0.001369,0.000554,-0.002707,-0.017172,0.012049,-0.007224,0.009179,-0.006673
827,0.827,-0.000303,0.003650,0.006769,-0.020867,0.010691,0.009286,0.008644,-0.007489
828,0.828,0.000217,-0.000372,0.003053,-0.015283,0.006966,0.018187,0.012681,-0.015232
829,0.829,-0.000129,-0.003894,-0.000147,-0.014275,0.007990,-0.000831,0.004872,-0.014190
830,0.830,-0.001337,-0.008925,0.005124,-0.011573,0.004964,-0.013060,0.001646,-0.001980
831,0.831,-0.000344,-0.003967,-0.001281,-0.014133,-0.003469,0.007375,-0.001416,0.006502
832,0.832,-0.000035,-0.006959,0.008224,-0.019412,-0.009020,0.032198,-0.005985,0.014134
833,0.833,0.001622,-0.009769,0.004532,-0.008784,-0.005941,0.029083,-0.006842,0.018212
834,0.834,-0.000949,-0.006149,0.005583,-0.013378,-0.010466,0.020338,-0.009054,0.021953
835,0.835,-0.000645,-0.005757,0.004597,-0.014794,-0.009575,0.006627,-0.004165,0.020961
836,0.836,-0.005776,-0.000129,0.005469,-0.016053,-0.002608,0.004225,-0.005879,0.009487
837,0.837,-0.002267,0.008377,-0.000419,-0.008334,-0.001753,0.001974,0.001712,-0.004361
838,0.838,-0.000624,0.011637,-0.001059,-0.001112,0.006042,0.003993,0.002708,-0.017371
839,0.839,-0.003556,0.012690,-0.007449,-0.000313,0.007066,0.009579,-0.001868,-0.019044
840,0.840,-0.005146,0.011877,-0.003184,-0.001217,0.006220,0.004503,-0.002700,-0.017508
841,0.841,-0.003002,0.002431,-0.003827,-0.003506,-0.001563,-0.015438,-0.000489,-0.024438
842,0.842,-0.001003,0.003636,-0.007353,-0.001556,-0.002580,-0.023533,-0.001145,-0.028155
843,0.843,0.002497,-0.011238,-0.007826,0.004131,-0.007127,-0.025886,-0.000618,-0.031373
844,0.844,0.001260,-0.009183,-0.002555,0.010980,-0.006208,-0.005566,0.001087,-0.032397
845,0.845,0.004084,-0.022189,0.001022,0.008180,-0.005395,0.008159,0.003643,-0.022100
846,0.846,-0.000197,-0.017096,-0.001996,0.000307,-0.005933,0.015426,0.005873,-0.012476
847,0.847,-0.000759,-0.003217,0.004459,-0.002836,-0.005312,0.017592,0.001163,-0.008785
848,0.848,0.000714,0.002366,0.001942,0.001640,-0.010458,0.011449,0.006926,-0.001036
849,0.849,-0.002379,0.004046,-0.006491,-0.000954,-0.002603,0.002065,0.006267,0.006207
850,0.850,-0.005303,0.005547,-0.009685,-0.007925,0.000481,0.000257,0.014065,0.003444
851,0.851,-0.007210,0.006871,-0.008667,-0.003384,-0.004089,0.010775,0.004600,0.007606
852,0.852,-0.002676,-0.001962,-0.004094,0.009441,-0.013590,0.006581,0.008331,0.012763
853,0.853,0.001522,-0.003011,-0.001551,0.011272,-0.007371,-0.004851,0.002763,0.019103
854,0.854,0.002003,-0.006088,0.006912,0.012933,-0.006403,-0.012569,0.001752,0.026795
855,0.855,-0.002747,-0.003404,0.005902,0.017461,-0.022177,-0.022331,-0.004658,0.036193
856,0.856,0.001474,-0.000883,0.006931,0.010486,-0.028815,-0.018763,-0.007166,0.039865
857,0.857,0.009084,0.001304,0.002366,0.009254,-0.018704,-0.013362,-0.004927,0.043071
858,0.858,0.010104,-0.003618,-0.005410,0.005989,-0.001985,-0.002034,-0.009785,0.040063
859,0.859,0.010954,0.000594,-0.010656,0.000705,0.013540,0.002383,-0.012762,0.027934
860,0.860,0.011815,-0.001122,-0.017083,-0.002044,0.027715,-0.001797,-0.003881,0.012764
861,0.861,0.004906,0.003596,-0.011168,-0.004636,0.036992,-0.008175,-0.002607,-0.005626
862,0.862,0.009505,0.000529,-0.011844,-0.016180,0.035271,-0.011535,-0.005746,-0.017944
863,0.863,0.005319,0.002197,-0.006930,-0.011131,0.036760,-0.006432,-0.000442,-0.029087
864,0.864,0.006048,0.000638,-0.002685,0.002720,0.024215,-0.005698,0.009926,-0.043277
865,0.865,0.006785,0.001788,0.001381,0.011987,0.015741,-0.018644,0.008613,-0.045121
866,0.866,0.001109,-0.004679,0.001882,0.017017,0.008119,-0.031749,0.004950,-0.043423
867,0.867,0.003378,-0.009280,0.001511,0.009346,0.001178,-0.019988,0.003979,-0.029556
868,0.868,0.005479,-0.011855,0.003510,0.013343,-0.007617,-0.009426,0.003015,-0.016554
869,0.869,0.002510,-0.006656,0.000935,0.009567,-0.015409,0.000122,0.003909,-0.011512
870,0.870,0.002083,0.001085,0.004111,0.012721,-0.010187,0.003775,0.003110,-0.006993
871,0.871,0.003701,0.008318,0.002035,0.005382,-0.003790,0.020840,-0.002085,-0.000114
872,0.872,-0.001286,-0.000181,0.002325,-0.003146,0.002105,0.018471,-0.006949,-0.001356
873,0.873,0.002362,0.002993,0.006840,-0.010989,0.001414,0.002899,-0.003857,0.001801
874,0.874,0.000773,0.003958,0.009829,-0.018334,-0.002148,0.000842,-0.011423,0.004800
875,0.875,0.000368,0.003064,0.010283,-0.017559,0.002072,0.002665,-0.012404,0.013232
876,0.876,0.001998,0.008942,0.007683,-0.004773,-0.000815,-0.005816,-0.013202,0.012215
877,0.877,0.005154,0.012615,0.002547,-0.002984,-0.008618,-0.004293,-0.007242,0.015255
878,0.878,0.009992,0.006139,0.000460,-0.004735,-0.011858,-0.016794,-0.012458,0.012540
879,0.879,0.003160,0.001857,0.002087,-0.000200,-0.010860,-0.021830,-0.003131,0.015066
880,0.880,0.004109,0.002471,-0.002023,0.003839,-0.010039,-0.007906,-0.006846,0.012860
881,0.881,0.005058,-0.002502,-0.001556,0.002635,-0.012607,0.012670,0.000937,0.010828
882,0.882,0.001435,-0.004245,-0.004646,0.001595,-0.016364,0.037523,0.001956,0.006595
883,0.883,0.002208,-0.001426,-0.001812,0.017314,-0.014378,0.060720,0.002800,0.002548
884,0.884,0.000607,0.001066,0.000014,0.015129,-0.007484,0.052089,0.008717,-0.002173
885,0.885,-0.003371,-0.005065,-0.004597,0.000936,0.004659,0.038482,0.004992,-0.000478
886,0.886,-0.003794,-0.002568,-0.001597,-0.008352,0.009715,0.031237,0.000089,0.004761
887,0.887,-0.000672,-0.000402,0.000058,-0.013393,0.014273,0.033445,0.000606,0.001183
888,0.888,0.005837,0.003124,0.003560,-0.005720,0.015612,0.035463,-0.008174,0.004195
889,0.889,-0.002552,0.001414,0.002328,0.009580,0.016781,0.026127,-0.004448,0.008215
890,0.890,-0.017379,-0.000284,0.006160,0.003572,0.013556,0.017619,-0.003436,0.004633
891,0.891,-0.003105,0.006488,0.002562,-0.001933,-0.002191,0.012998,0.001809,0.009686
892,0.892,-0.004912,-0.003838,0.003700,0.016741,-0.035870,0.006008,0.006373,0.008998
893,0.893,-0.003172,-0.002495,0.003990,0.014425,-0.069703,-0.002836,0.007223,0.009498
894,0.894,-0.001600,-0.003698,0.000387,0.007902,-0.056477,-0.006094,0.005021,0.004261
895,0.895,-0.000204,-0.000491,0.000004,0.005950,-0.028525,-0.015571,0.009923,0.009181
896,0.896,-0.003902,0.000515,0.000302,-0.003273,-0.010352,-0.024367,0.019397,0.006155
897,0.897,-0.004894,0.001369,-0.004816,-0.021821,0.006141,-0.021148,0.015337,0.000943
898,0.898,-0.003862,0.002230,0.000055,-0.024130,0.027013,-0.018093,0.014145,0.011636
899,0.899,-0.003015,0.004447,0.004248,-0.026250,0.040754,-0.018905,0.010929,0.016246
900,0.900,-0.007254,0.005145,0.000154,-0.020057,0.048064,-0.031698,0.007869,0.025925
901,0.901,-0.003556,0.002121,-0.003421,-0.010638,0.045897,-0.055843,0.003275,0.017164
902,0.902,-0.005622,0.003835,-0.004631,-0.005430,0.039830,-0.045995,0.009155,0.011612
903,0.903,-0.005162,0.000292,-0.004977,-0.000732,0.030541,-0.037176,-0.002399,-0.004085
904,0.904,-0.009277,-0.000875,-0.008530,-0.001978,0.022111,-0.012480,-0.010908,-0.019614
905,0.905,-0.009850,-0.003741,-0.003447,-0.000700,0.011474,0.010510,-0.015536,-0.042077
906,0.906,-0.006882,-0.002710,-0.005477,0.004977,0.004529,0.019284,-0.016961,-0.062854
907,0.907,-0.004100,0.002551,0.000283,0.004073,0.003329,0.011176,-0.023283,-0.060131
908,0.908,-0.009939,-0.001154,-0.000382,0.008756,0.000132,-0.001138,-0.026552,-0.052862
909,0.909,-0.005819,-0.000460,-0.001059,0.006323,-0.005045,0.001107,-0.023564,-0.041723
910,0.910,-0.005264,0.000077,-0.004110,0.004223,-0.002232,0.011305,-0.009578,-0.023325
911,0.911,-0.007431,-0.000399,-0.003603,0.007855,-0.002962,0.013215,0.000530,-0.011028
912,0.912,-0.009272,0.003195,-0.006126,0.006247,-0.008112,0.008190,0.013524,-0.004493
913,0.913,-0.008913,0.000194,-0.004929,0.004656,-0.014474,0.006737,0.015180,0.001541
914,0.914,-0.009600,0.000573,0.001517,0.009523,-0.016966,0.005474,0.004501,0.010780
915,0.915,-0.003683,-0.001925,0.013722,0.011350,-0.017590,-0.000678,0.005834,0.019167
916,0.916,-0.001306,-0.000196,0.008676,0.009806,-0.016852,0.000449,0.004610,0.026714
917,0.917,0.002228,-0.001180,0.010231,0.007383,-0.011059,0.003594,0.005575,0.025313
918,0.918,-0.001519,0.000711,0.006202,0.010491,-0.004106,0.004566,0.004503,0.026470
919,0.919,-0.005937,-0.000440,0.009954,0.016140,0.002325,-0.001214,0.003607,0.020884
920,0.920,0.000295,0.001290,0.008969,0.012483,0.004867,-0.006335,0.002692,0.013618
921,0.921,-0.000755,0.000316,0.005963,0.004764,0.002669,-0.004221,-0.004297,0.010938
922,0.922,-0.001645,0.003407,0.008710,0.007853,-0.002238,-0.003666,-0.005198,0.005062
923,0.923,0.001695,0.001408,0.004512,0.005172,0.001993,-0.003161,-0.002720,-0.006394
924,0.924,-0.001557,-0.003629,0.008272,0.000954,-0.000875,-0.002691,-0.011226,-0.014803
925,0.925,-0.000071,0.001311,0.000543,0.001633,0.004892,-0.006946,-0.005692,-0.007129
926,0.926,0.004618,0.002696,0.001772,-0.002415,0.003557,-0.005260,-0.000317,-0.001990
927,0.927,0.002887,0.003235,0.002828,-0.010184,-0.004891,-0.012881,0.002705,-0.000581
928,0.928,0.002352,0.007330,-0.009311,-0.009157,0.000689,-0.028630,0.005398,0.000654
929,0.929,0.000972,0.007857,-0.010960,-0.002719,0.001678,-0.057901,0.004554,0.006278
930,0.930,0.003311,0.000934,-0.009397,0.003204,0.000807,-0.061789,-0.000679,0.011564
931,0.931,0.003452,0.003991,-0.005304,-0.002051,0.005009,-0.058215,0.001370,0.001285
932,0.932,0.005626,-0.002436,-0.011525,-0.008512,0.005666,-0.035166,0.001910,-0.000040
933,0.933,0.006783,-0.001593,-0.003717,-0.007707,0.002101,0.009893,0.000246,0.006237
934,0.934,0.002712,0.000609,-0.002679,-0.002510,-0.006166,0.042256,-0.000228,0.007250
935,0.935,0.002026,-0.000064,-0.007222,-0.008997,-0.005066,0.048048,-0.005276,0.010258
936,0.936,-0.000678,0.000438,0.000590,-0.016865,0.000294,0.053315,-0.004582,0.005635
937,0.937,0.005253,-0.003622,-0.000390,-0.015951,0.004989,0.058047,0.002365,0.004707
938,0.938,0.005946,-0.011411,0.004212,-0.015211,0.002579,0.062405,0.003221,0.000879
939,0.939,-0.001133,-0.017006,0.000016,-0.009386,0.003358,0.050490,-0.001006,0.000103
940,0.940,0.003307,-0.011785,0.002236,0.000515,-0.000141,0.032280,0.002710,-0.005729
941,0.941,0.004025,-0.005402,0.002926,0.010077,-0.008419,0.022339,-0.003721,-0.005133
942,0.942,0.000211,-0.004603,0.005972,-0.001345,-0.025538,0.019315,0.000498,-0.008720
943,0.943,-0.000557,-0.006850,0.006483,0.000081,-0.023270,0.005468,0.001164,-0.007042
944,0.944,0.007669,-0.006216,0.004966,-0.004084,-0.034574,0.007721,-0.002394,0.000582
945,0.945,-0.000168,-0.007945,0.005302,0.004590,-0.032673,0.005427,-0.001888,-0.000398
946,0.946,-0.001229,-0.000354,0.003264,0.003452,-0.012299,-0.000759,-0.000189,0.000488
947,0.947,0.005152,0.002680,0.002925,-0.006144,0.006732,-0.021315,-0.002723,-0.000320
948,0.948,0.004291,0.001822,-0.002326,-0.020145,0.013946,-0.040468,0.004204,0.004958
949,0.949,0.006525,0.002640,-0.007573,-0.025860,0.016106,-0.023248,0.011458,0.001447
950,0.950,0.007210,0.001943,-0.001148,-0.027678,0.018114,-0.007685,0.010586,0.003207
951,0.951,0.011463,0.005463,-0.007082,-0.013934,0.016237,-0.001608,0.014782,-0.000783
952,0.952,0.010980,0.001208,-0.007776,0.002687,0.011139,0.007650,0.007812,-0.000234
953,0.953,0.009495,0.005249,-0.005770,0.009176,0.015667,0.012654,0.010480,-0.002411
954,0.954,0.007350,0.003704,-0.000045,0.007031,0.025252,0.011053,0.011274,-0.000379
955,0.955,0.012981,0.004859,-0.005327,-0.009834,0.023988,-0.007080,0.002746,0.003169
956,0.956,0.004586,0.006004,-0.007387,-0.012148,0.009004,-0.014380,-0.000558,0.010094
957,0.957,0.010241,0.002409,-0.001672,-0.006167,-0.013581,-0.012218,-0.001669,0.011112
958,0.958,0.009312,-0.002701,0.002021,-0.004412,-0.028519,-0.010251,-0.002615,0.006582
959,0.959,0.010244,-0.003423,-0.001571,0.007326,-0.025825,-0.012212,-0.005258,0.000731
960,0.960,0.006116,-0.006509,-0.003308,0.002646,-0.008578,-0.013998,-0.009096,-0.002888
961,0.961,0.000977,-0.008235,0.000700,-0.012707,0.002577,-0.024730,-0.007164,-0.009186
962,0.962,0.011743,-0.003536,0.002180,-0.022994,0.008638,-0.028844,-0.011487,-0.003124
963,0.963,0.001195,-0.003063,0.001798,-0.013843,-0.008156,-0.032626,-0.006329,0.000735
964,0.964,-0.011202,-0.000222,0.001414,-0.015695,-0.019386,-0.035899,0.004247,0.004435
965,0.965,0.000756,0.000253,-0.001165,0.007150,-0.009304,-0.024448,0.005703,0.001538
966,0.966,0.002414,-0.000122,0.000491,0.030008,0.003675,-0.026011,0.006995,0.002194
967,0.967,-0.004381,-0.001341,0.001461,0.021068,0.008694,-0.021986,0.000687,-0.002407
968,0.968,-0.003062,-0.000356,0.000064,0.012800,0.004081,-0.003055,0.010981,-0.003978
969,0.969,0.000295,0.002825,-0.003883,0.010293,0.010981,0.021627,-0.001557,-0.011485
970,0.970,0.003476,0.001595,-0.005619,0.012382,0.014659,0.044617,-0.003251,-0.016644
971,0.971,-0.000954,0.004094,0.001097,0.014319,0.013605,0.059486,-0.001722,-0.015736
972,0.972,-0.003348,0.000836,-0.001670,0.016078,0.006284,0.056783,-0.005781,-0.013151
973,0.973,-0.005417,0.001130,-0.009513,0.014273,-0.002209,0.034489,-0.006950,-0.016841
974,0.974,0.002496,0.001427,-0.004331,0.006554,-0.001222,0.013736,-0.010152,-0.011916
975,0.975,-0.002626,0.001734,-0.003540,0.010519,0.001795,0.005718,-0.015389,-0.007671
976,0.976,-0.007078,-0.000659,-0.006150,0.006726,0.004475,0.008219,-0.012657,-0.003589
977,0.977,-0.004432,0.002366,-0.006898,0.003457,0.017296,-0.007215,-0.020406,-0.000009
978,0.978,-0.005007,0.002697,-0.003415,0.006443,0.015402,-0.013212,-0.015118,-0.001166
979,0.979,-0.002885,0.001690,-0.000446,0.010968,0.013683,-0.014995,-0.017764,-0.002310
980,0.980,-0.002295,0.004053,-0.002217,0.016845,0.006046,-0.016637,-0.016847,0.002797
981,0.981,-0.000537,0.005051,0.004479,0.013091,-0.000928,-0.018113,-0.009844,0.006373
982,0.982,-0.007243,0.000812,0.007118,0.016612,-0.019898,-0.008413,-0.010614,0.014651
983,0.983,-0.004488,0.001300,0.006210,0.012356,-0.050028,-0.014593,-0.001059,0.031702
984,0.984,-0.008677,0.001793,-0.000780,0.012863,-0.053933,-0.017706,0.002746,0.038933
985,0.985,-0.007977,-0.000756,-0.001682,0.011358,-0.050404,-0.008120,0.003852,0.050043
986,0.986,-0.003070,0.004297,-0.000881,0.006308,-0.040602,0.010924,0.004959,0.051989
987,0.987,-0.001380,0.006306,0.001275,-0.000085,-0.019785,0.024726,0.005902,0.038863
988,0.988,-0.010184,0.009346,0.006133,-0.005953,0.010364,0.032110,0.013788,0.020136
989,0.989,-0.009023,0.018133,0.010322,-0.012834,0.030383,0.030004,0.010848,0.012728
990,0.990,-0.014646,0.016938,0.011981,-0.013625,0.041268,0.032104,0.017384,-0.016681
991,0.991,-0.007424,0.006612,0.007216,-0.000693,0.057736,0.019124,0.016644,-0.028683
992,0.992,-0.015944,0.002568,0.002957,-0.002465,0.060671,-0.006215,0.009813,-0.039672
993,0.993,-0.010440,-0.003668,0.003439,-0.000701,0.058011,-0.016998,0.003489,-0.049638
994,0.994,-0.007484,-0.011419,0.004948,-0.005182,0.045711,-0.013747,-0.000634,-0.040959
995,0.995,-0.001156,-0.016631,-0.002005,-0.012014,0.039161,-0.016601,0.004713,-0.032929
996,0.996,-0.014133,-0.013895,-0.001007,-0.015619,0.020787,-0.035706,0.006843,-0.025703
997,0.997,-0.034728,-0.002690,-0.001871,-0.009909,0.008521,-0.023348,0.009991,-0.019143
998,0.998,-0.004757,-0.007212,-0.001032,-0.010796,-0.006941,-0.034504,0.008404,-0.029350
999,0.999,-0.008804,-0.000232,0.001160,-0.002229,-0.016997,-0.020303,0.008009,-0.020120
1000,1.000,0.001861,-0.006444,0.000472,0.003463,-0.022497,0.000181,0.005073,-0.004995
1001,1.001,-0.001529,-0.009613,0.003518,-0.005890,-0.020732,0.030312,0.009911,0.005051
1002,1.002,-0.004585,-0.008557,0.003007,0.000507,-0.019138,0.042173,0.009501,0.010526
1003,1.003,0.003346,-0.003952,0.006573,-0.000344,-0.012145,0.024088,0.016018,0.008724
1004,1.004,0.000772,0.002003,0.003547,-0.001185,-0.008368,0.027330,0.025580,0.007101
1005,1.005,0.002761,0.004230,0.003908,-0.003709,-0.018642,0.030218,0.026844,-0.002622
1006,1.006,0.000530,0.002228,0.000374,-0.006075,-0.036699,0.032922,0.023694,-0.008944
1007,1.007,0.002182,0.005297,0.004629,-0.005222,-0.053938,0.040184,0.024772,-0.012214
1008,1.008,0.000278,0.002447,0.005162,-0.001499,-0.047336,0.029021,0.031257,-0.015304
1009,1.009,0.001574,-0.002270,0.004693,0.006960,-0.033139,0.014807,0.023527,-0.012650
1010,1.010,0.002709,0.000806,-0.002206,0.012719,-0.012658,-0.001925,0.020538,-0.008479
1011,1.011,0.003665,0.000332,-0.003183,0.018133,0.001088,-0.004055,0.016008,-0.000090
1012,1.012,0.000216,-0.001154,-0.002290,0.019122,0.013494,-0.005959,0.006568,-0.003377
1013,1.013,0.005243,-0.002282,-0.001387,0.018414,0.015749,-0.011410,-0.012362,-0.000390
1014,1.014,-0.001408,0.000647,-0.002016,0.007058,0.005649,-0.019744,-0.015054,0.000405
1015,1.015,-0.002479,0.001042,-0.001297,0.002134,0.014984,-0.018118,-0.022299,0.006269
1016,1.016,0.004247,-0.002119,-0.004290,0.003818,0.013324,-0.024924,-0.033456,0.008409
1017,1.017,-0.004415,0.001821,-0.000191,-0.000083,0.011839,-0.018529,-0.031436,0.010376
1018,1.018,-0.001397,0.009653,-0.007927,-0.013822,0.018827,-0.017387,-0.037045,0.012007
1019,1.019,0.001460,0.004126,-0.004670,-0.023013,0.015151,-0.014245,-0.035392,0.016011
1020,1.020,-0.005146,0.007226,-0.001582,-0.014448,0.016244,-0.020602,-0.027840,0.016467
1021,1.021,0.002477,0.008129,-0.000688,-0.000478,0.004836,-0.033403,-0.029260,0.016773
1022,1.022,0.001319,0.003950,-0.003168,-0.002245,0.003400,-0.035225,-0.018001,0.013879
1023,1.023,0.002032,-0.004462,-0.005319,-0.007244,0.002113,-0.053849,-0.013509,0.008112
1024,1.024,0.004445,-0.003396,0.001159,-0.014795,0.005893,-0.061188,-0.014919,0.007256
1025,1.025,0.006539,-0.004362,0.002055,-0.018816,0.009162,-0.040981,-0.011253,0.003539
1026,1.026,0.004411,-0.010733,0.001430,-0.010003,0.003958,-0.011001,-0.012332,0.001524
1027,1.027,0.005510,-0.014750,-0.000211,-0.010336,0.004146,-0.000498,-0.017295,-0.008601
1028,1.028,0.004946,-0.003539,0.003389,0.002176,0.003322,0.011163,-0.018362,-0.002804
1029,1.029,0.010147,0.001068,0.001748,0.003877,0.011121,0.021811,-0.013830,0.002484
1030,1.030,0.006559,-0.000255,0.003499,0.005435,0.003870,0.024857,-0.011331,0.013188
1031,1.031,0.008229,0.003506,-0.001188,0.004098,0.001177,0.027571,-0.010676,0.020850
1032,1.032,0.006540,0.002528,0.000548,-0.004718,-0.003047,0.035534,-0.007139,0.022255
1033,1.033,0.007059,0.003570,0.003477,-0.005758,0.000665,0.033026,-0.007660,0.021118
1034,1.034,0.013184,0.010022,-0.004242,-0.006790,-0.004272,0.030688,-0.005978,0.031510
1035,1.035,0.005462,0.009191,0.001394,-0.007661,-0.010041,0.016371,-0.003436,0.027522
1036,1.036,0.004521,-0.002302,0.004485,-0.008542,-0.021548,-0.000399,-0.000397,0.028784
1037,1.037,0.007322,-0.000596,0.001829,-0.000138,-0.029988,0.001842,0.001612,0.025635
1038,1.038,0.006587,0.000936,-0.004044,0.010096,-0.022348,-0.000140,0.000576,0.022613
1039,1.039,0.008903,0.005011,-0.003319,0.005927,-0.018231,-0.001987,0.005797,0.021745
1040,1.040,0.007011,-0.003773,-0.001242,0.004622,-0.016987,-0.003729,0.005078,0.015778
1041,1.041,0.007666,-0.004776,-0.000700,0.010087,-0.009164,-0.011442,0.008585,0.004186
1042,1.042,0.006156,-0.007829,-0.007098,0.004732,-0.001845,-0.012929,0.008022,-0.021292
1043,1.043,0.009891,-0.005132,-0.002840,-0.005702,0.000895,0.000769,0.008460,-0.032221
1044,1.044,0.010429,-0.000927,-0.002140,-0.004463,-0.001637,0.006168,0.010917,-0.055323
1045,1.045,0.005910,-0.001637,-0.000088,-0.008289,0.003588,0.004310,0.009646,-0.052503
1046,1.046,0.010375,-0.002347,-0.005830,-0.009397,0.002879,-0.003457,0.006689,-0.033403
1047,1.047,0.012314,-0.001867,-0.005133,0.002038,0.009757,0.003328,0.004741,-0.016132
1048,1.048,0.009006,-0.002387,-0.001565,0.003521,0.014245,0.004413,0.009214,-0.000522
1049,1.049,0.009633,-0.000890,-0.002059,0.002118,0.014998,0.012113,0.009630,0.001562
1050,1.050,0.007050,0.003324,0.000830,0.003246,0.009654,0.013072,0.010041,-0.000216
1051,1.051,0.004820,0.002791,-0.006944,-0.002394,0.011588,0.017589,0.008424,0.001582
1052,1.052,0.007506,0.006310,-0.003718,-0.005507,0.010994,0.006392,0.006135,-0.005911
1053,1.053,0.003422,0.007472,-0.000667,-0.012002,0.016160,0.010927,0.008077,-0.015437
1054,1.054,-0.003858,0.006270,0.002040,-0.011214,0.009667,0.006814,0.009844,-0.021577
1055,1.055,-0.006570,0.007270,-0.000499,-0.011965,0.013845,0.007977,0.005878,-0.018260
1056,1.056,-0.003519,0.002012,0.004744,-0.001377,0.006845,0.000241,0.007331,-0.021220
1057,1.057,0.002748,0.002664,-0.000174,0.000069,0.011345,0.005541,0.007586,-0.014714
1058,1.058,-0.003837,-0.003797,0.000319,0.001349,0.000107,-0.008464,0.001073,-0.010408
1059,1.059,-0.000781,-0.006371,0.000804,0.000094,-0.007562,-0.039099,0.009449,-0.001872
1060,1.060,0.000416,-0.005741,-0.001750,0.007803,-0.008948,-0.069960,0.010394,0.001410
1061,1.061,-0.004471,-0.013562,-0.004837,0.004675,-0.005240,-0.058251,0.015549,-0.001562
1062,1.062,-0.004787,-0.008356,0.001557,0.003755,-0.010819,-0.040320,0.014609,-0.000639
1063,1.063,-0.006117,-0.007561,0.006086,-0.000546,-0.001341,-0.017504,0.006727,0.007209
1064,1.064,-0.004064,-0.003386,-0.001730,0.003097,0.004922,-0.020567,0.013898,0.008284
1065,1.065,-0.002191,-0.001241,0.007723,0.009448,0.005926,-0.018060,0.018373,0.011040
1066,1.066,-0.006908,-0.001961,0.003973,0.010217,-0.003553,-0.005901,0.017438,0.008562
1067,1.067,-0.004524,-0.005046,0.004944,0.009463,-0.004754,0.023181,0.021069,0.006407
1068,1.068,-0.002486,-0.002218,0.001865,0.004473,-0.021864,0.043007,0.018970,0.002893
1069,1.069,-0.007388,-0.004804,-0.000882,0.003881,-0.029157,0.046449,0.014690,-0.006555
1070,1.070,-0.011953,0.001223,-0.001765,0.000916,-0.022584,0.043141,0.012953,-0.007894
1071,1.071,-0.011115,0.000323,0.001927,0.005585,-0.012467,0.051841,0.005147,-0.001627
1072,1.072,-0.006732,-0.003443,-0.001651,0.006051,-0.010649,0.049032,-0.011946,-0.000617
1073,1.073,-0.005908,-0.001457,0.001369,0.008889,-0.005622,0.036603,-0.014303,-0.001658
1074,1.074,-0.004426,-0.007276,0.001852,0.016623,0.004984,0.043124,-0.012077,-0.000862
1075,1.075,-0.005312,0.001108,0.000304,0.013355,0.017449,0.045081,-0.014078,-0.001781
1076,1.076,-0.010776,0.000035,0.002488,0.010269,0.015709,0.039455,-0.019607,-0.008807
1077,1.077,-0.007972,0.003032,0.002134,-0.003806,0.011092,0.024229,-0.024632,-0.004347
1078,1.078,-0.000783,0.005696,-0.002117,-0.022285,0.001414,0.010027,-0.020007,-0.003609
1079,1.079,0.000294,-0.000260,0.001918,-0.009958,0.000188,0.000737,-0.026883,0.000027
1080,1.080,-0.003717,0.000374,0.006624,0.005616,0.001156,-0.004317,-0.023088,0.001989
1081,1.081,-0.002837,0.002357,-0.000342,0.003622,0.000092,-0.011910,-0.021984,0.008873
1082,1.082,-0.004671,0.002818,-0.008832,-0.009357,0.002750,-0.015939,-0.016655,-0.001471
1083,1.083,-0.010253,0.006831,-0.007856,-0.007626,0.000169,-0.034823,-0.022985,-0.000127
1084,1.084,-0.006385,0.006279,-0.002648,-0.006052,0.000804,-0.075830,-0.015108,-0.003866
1085,1.085,-0.004219,0.003202,-0.005390,0.000933,-0.001275,-0.093149,-0.005534,-0.000679
1086,1.086,-0.003598,0.005212,-0.002876,0.012313,0.006971,-0.077173,-0.006627,0.012982
1087,1.087,-0.000631,-0.000567,-0.002222,0.019979,0.001330,-0.043313,-0.003316,0.025958
1088,1.088,-0.002071,0.001959,-0.001571,0.018680,0.004325,-0.003541,0.004052,0.030976
1089,1.089,0.000192,-0.001780,0.004141,0.012479,0.010714,0.023031,0.004998,0.038516
1090,1.090,-0.006193,0.001768,0.000387,0.011513,0.004759,0.027776,0.005944,0.039789
1091,1.091,0.000263,-0.001299,-0.003187,0.008510,-0.000508,0.032188,0.006714,0.033443
1092,1.092,0.002815,0.003932,-0.000157,0.005858,0.003033,0.028310,0.007476,0.025568
1093,1.093,0.002139,0.004593,-0.000685,-0.005253,0.001341,0.017527,0.007050,0.009739
1094,1.094,0.001451,0.002906,0.001843,-0.015865,-0.002724,0.007803,0.005433,-0.005899
1095,1.095,-0.004331,0.002408,-0.005107,-0.028341,-0.001210,-0.000863,0.008034,-0.016127
1096,1.096,-0.002179,-0.001127,-0.002068,-0.036743,0.003023,-0.019845,0.012325,-0.025484
1097,1.097,-0.002917,0.003967,-0.001236,-0.022801,0.002541,-0.027000,0.005948,-0.027194
1098,1.098,-0.001301,0.000431,-0.000396,-0.009676,0.004113,-0.024662,0.006838,-0.031757
1099,1.099,0.001488,0.002146,0.001805,-0.004510,0.001969,-0.010297,0.003159,-0.030391
1100,1.100,-0.002163,0.005040,-0.001737,-0.002901,0.000823,-0.004567,0.002519,-0.029188
1101,1.101,0.002794,-0.001710,0.001317,0.001242,0.000497,-0.002743,0.000856,-0.021397
1102,1.102,-0.000888,-0.002543,0.004194,-0.004940,-0.001187,-0.004149,0.007294,-0.022397
1103,1.103,0.000664,-0.001674,0.000654,0.005439,-0.004918,-0.022165,-0.002183,-0.012071
1104,1.104,-0.003554,-0.002321,-0.000514,0.001438,0.000139,-0.059301,-0.005917,-0.005146
1105,1.105,-0.003223,0.001259,0.003393,0.005223,-0.001929,-0.053977,-0.000365,-0.003963
1106,1.106,-0.003063,0.005532,0.004937,0.004258,-0.000275,-0.029720,0.000619,-0.002927
1107,1.107,-0.001221,0.003889,0.007162,0.005334,0.001369,0.001115,0.001451,-0.003915
1108,1.108,-0.001072,0.005464,0.000767,0.009973,0.000817,0.029082,-0.011427,0.004581
1109,1.109,-0.004483,0.000445,0.011128,0.015954,0.001951,0.054507,0.001578,0.003602
1110,1.110,-0.005031,-0.001531,0.004231,0.009074,-0.001985,0.070946,0.003247,0.002626
1111,1.111,-0.007783,0.004265,0.005458,0.004587,0.001526,0.073851,0.004740,0.005375
1112,1.112,-0.004790,0.004999,0.002274,0.005526,-0.001544,0.060199,0.000649,0.007944
1113,1.113,-0.002993,0.004390,-0.007182,-0.002866,-0.000376,0.057933,-0.000578,0.010183
1114,1.114,-0.008306,-0.003830,-0.000899,-0.003839,-0.002227,0.046946,0.002585,0.002448
1115,1.115,-0.003649,-0.006970,0.006900,-0.000739,0.001007,0.036993,0.005581,0.007739
1116,1.116,-0.005595,0.000388,0.001686,0.003882,0.001361,0.009265,0.002810,0.006942
1117,1.117,-0.002991,0.003184,0.000864,-0.000307,-0.002188,-0.002401,-0.001495,0.009523
1118,1.118,-0.003765,0.007505,0.001733,0.003449,-0.003366,-0.005770,0.005368,0.011771
1119,1.119,-0.003700,0.000656,-0.001964,-0.000078,-0.000491,-0.002402,0.004441,0.008265
1120,1.120,0.000750,-0.005691,-0.003973,-0.004294,-0.001498,0.000611,0.000117,0.008811
1121,1.121,-0.001226,-0.008146,-0.004461,-0.004809,0.000216,-0.007400,0.000708,0.014103
1122,1.122,0.004911,0.003441,-0.004940,0.002943,0.001263,-0.009680,-0.001400,0.017719
1123,1.123,-0.001307,0.008582,-0.000179,0.006122,0.003153,-0.003037,0.000207,0.024718
1124,1.124,-0.000928,-0.002006,-0.005904,0.000831,0.001500,-0.000985,-0.008647,0.025641
1125,1.125,0.003683,-0.008870,-0.005203,0.005352,-0.002180,-0.006553,-0.002427,0.026551
1126,1.126,0.003892,-0.009974,-0.001629,0.011224,-0.009918,-0.004842,-0.005679,0.015105
1127,1.127,0.007653,-0.004313,0.002623,0.007442,-0.004312,-0.003317,-0.002678,-0.000060
1128,1.128,0.008197,0.005257,0.003663,-0.012254,0.003152,-0.004678,-0.005091,-0.009299
1129,1.129,0.004355,0.006369,0.004200,-0.022979,0.000124,-0.006051,-0.009683,-0.015334
1130,1.130,-0.000169,0.007295,0.001696,-0.024530,-0.000702,-0.014863,-0.003780,-0.028302
1131,1.131,0.004786,0.006523,0.006814,-0.017588,-0.004909,-0.031955,-0.007509,-0.036698
1132,1.132,0.009408,0.004390,0.004818,-0.018785,-0.001156,-0.054261,-0.003953,-0.029024
1133,1.133,0.006085,-0.000437,0.000625,-0.011041,0.002429,-0.051360,-0.005631,-0.016463
1134,1.134,0.004113,-0.008653,-0.003380,-0.003802,-0.001763,-0.032241,0.003175,-0.011353
1135,1.135,0.007394,-0.007567,-0.001804,-0.004688,0.005879,-0.005057,-0.000526,-0.006751
1136,1.136,0.002036,-0.012755,-0.000577,0.003046,0.000668,0.005707,0.000508,-0.005368
1137,1.137,0.002424,-0.004242,0.005897,0.006046,0.003420,0.008895,-0.004713,0.000913
1138,1.138,0.005217,-0.007409,0.001369,0.008691,0.006000,0.011768,-0.003850,0.004153
1139,1.139,0.002070,0.002109,-0.002815,0.011152,0.002329,0.009077,-0.001295,0.003158
1140,1.140,0.000293,-0.001576,-0.004968,0.004141,0.001695,0.006754,0.002440,0.002348
1141,1.141,-0.003019,0.001672,-0.002899,0.001355,0.000041,-0.008754,0.000427,-0.005392
1142,1.142,-0.002942,-0.005569,-0.004553,0.002131,0.004136,-0.022898,0.002152,-0.014826
1143,1.143,-0.000665,-0.002830,0.000733,0.005794,0.004682,-0.039606,0.006248,-0.011071
1144,1.144,-0.003285,-0.005333,-0.002789,-0.003564,-0.001375,-0.032996,0.001544,-0.010021
1145,1.145,-0.001163,-0.003110,0.001475,-0.009896,-0.014208,-0.018797,0.003274,-0.008981
1146,1.146,-0.001242,0.001811,-0.001376,-0.017753,-0.023482,-0.020672,0.002786,-0.004390
1147,1.147,-0.005368,0.000133,-0.002873,-0.008361,-0.021758,-0.022374,0.002294,0.003400
1148,1.148,-0.006094,0.005386,-0.005897,-0.004715,-0.007852,-0.008508,0.002640,0.002391
1149,1.149,-0.003763,0.010292,-0.001987,-0.001549,0.005211,0.004535,0.003822,0.008818
1150,1.150,-0.004295,0.010800,0.000569,-0.000574,0.006939,0.016395,0.009553,0.006299
1151,1.151,-0.004139,0.005552,-0.002459,0.009702,0.014579,0.027059,0.012057,0.008521
1152,1.152,-0.001771,0.001984,-0.001260,0.005593,0.018668,0.028409,0.012693,0.016331
1153,1.153,0.000444,0.002467,0.001288,0.004354,0.022411,0.022135,0.019087,0.009079
1154,1.154,-0.004768,-0.006354,-0.003271,0.012099,0.019220,0.027682,0.009574,0.000658
1155,1.155,-0.001329,-0.010099,-0.001573,0.009019,0.016197,0.030649,-0.004343,-0.000299
1156,1.156,-0.001934,-0.009109,-0.007989,0.000525,0.013507,0.024149,-0.002508,0.000784
1157,1.157,-0.004894,-0.010145,-0.010523,0.006063,0.007605,0.016315,-0.007597,0.007288
1158,1.158,0.000793,-0.005599,-0.005275,0.005001,0.000689,0.013248,-0.003031,0.009925
1159,1.159,0.000070,0.003842,-0.007309,-0.009067,-0.000141,0.004782,-0.001675,0.007817
1160,1.160,-0.001986,-0.004995,0.002178,-0.019226,-0.006045,0.008012,-0.000460,0.011451
1161,1.161,0.002227,-0.004017,0.014691,-0.002508,-0.011277,-0.007695,0.002789,0.005767
1162,1.162,0.001720,-0.001009,0.009610,0.008619,-0.017697,-0.036962,-0.000226,0.003632
1163,1.163,0.006476,-0.000211,0.008079,-0.001568,-0.016847,-0.040894,0.000642,0.001666
1164,1.164,0.007027,-0.002795,0.003998,0.000261,-0.009905,-0.022877,0.008444,0.000018
1165,1.165,0.012323,-0.005051,0.005160,0.005328,-0.005337,-0.006583,0.009495,0.000552
1166,1.166,0.005971,-0.005788,0.004137,0.003815,-0.004482,0.002083,0.004962,-0.005178
1167,1.167,0.008588,0.001094,0.001074,0.002480,-0.005147,0.021039,0.004139,-0.005849
1168,1.168,0.010900,0.003749,0.001895,0.006218,-0.007168,0.018512,0.006355,-0.003812
1169,1.169,0.004591,0.006238,0.002715,0.014020,-0.006654,0.020563,-0.002935,-0.008044
1170,1.170,0.008953,0.003982,-0.001044,0.023515,-0.001400,0.022454,-0.011718,-0.012117
1171,1.171,0.012816,0.011703,-0.000403,0.019805,0.003505,0.031635,-0.012734,-0.008578
1172,1.172,0.010938,0.008591,0.001246,0.020835,0.001823,0.023051,-0.024228,-0.015534
1173,1.173,0.008074,0.002103,0.001720,0.015619,0.004698,0.018366,-0.025742,-0.004063
1174,1.174,0.007749,0.001197,0.002189,0.007186,0.008245,0.003041,-0.018807,0.000475
1175,1.175,0.004383,0.000447,0.002490,0.006187,0.014320,0.000926,-0.010011,-0.003629
1176,1.176,0.007630,-0.010297,-0.000432,0.003165,0.008371,-0.008461,-0.004424,-0.002497
1177,1.177,0.003951,-0.008862,-0.004701,-0.010849,0.003105,-0.010231,-0.007456,0.005213
1178,1.178,0.006707,-0.001995,-0.004239,-0.025041,-0.000454,-0.017905,-0.008279,0.004116
1179,1.179,0.000002,0.001665,-0.007831,-0.034349,-0.000955,-0.022030,-0.005714,0.001308
1180,1.180,-0.000784,0.004818,-0.004814,-0.019121,-0.007383,-0.038484,-0.005011,0.003739
1181,1.181,-0.003270,-0.004713,-0.008734,-0.008951,-0.004846,-0.031897,-0.002949,0.007357
1182,1.182,-0.002196,-0.001059,-0.016535,-0.007050,-0.008569,-0.017687,0.001315,0.010805
1183,1.183,-0.001295,-0.002137,-0.008775,-0.001926,-0.002138,0.006506,0.003045,0.006487
1184,1.184,0.009603,0.003040,-0.001528,0.005736,-0.004659,0.016340,0.009852,0.009289
1185,1.185,0.014414,0.002116,-0.000718,0.007139,-0.006824,0.013529,0.007198,0.017002
1186,1.186,-0.006140,0.001195,0.003478,0.015981,-0.007433,0.021761,0.011482,0.013720
1187,1.187,0.008990,0.001801,-0.000278,0.017048,-0.009043,0.029155,0.013738,0.010618
1188,1.188,0.001114,0.002410,0.001726,0.005598,-0.000156,0.013701,0.013121,-0.003476
1189,1.189,0.008640,0.004043,0.003382,0.004134,-0.001267,-0.000403,0.007435,-0.013681
1190,1.190,0.011088,-0.000053,0.000467,-0.005434,-0.002238,-0.013341,-0.004004,-0.019314
1191,1.191,0.013367,0.000415,-0.000074,-0.014143,-0.001217,-0.004816,-0.005632,-0.021048
1192,1.192,0.008036,-0.002662,0.004966,-0.019636,0.001442,-0.000172,-0.004052,-0.028710
1193,1.193,0.006585,0.000191,0.002909,-0.008035,0.005604,0.003985,-0.008049,-0.024707
1194,1.194,0.008344,0.002711,0.003401,-0.006418,0.001824,-0.002159,0.005891,-0.021025
1195,1.195,0.004526,-0.000515,0.003887,0.000603,0.002438,-0.014541,0.007818,-0.008547
1196,1.196,-0.001494,0.002365,0.005391,0.009487,0.000677,-0.016053,0.006194,-0.000129
1197,1.197,-0.002276,0.002706,0.005022,0.001777,-0.001083,-0.023464,0.010826,0.007448
1198,1.198,-0.003068,0.000992,0.003810,0.000835,-0.001639,-0.010749,0.017831,0.000476
1199,1.199,-0.005556,0.002661,0.001244,0.003620,0.003424,0.001288,0.021619,0.004156
1200,1.200,-0.004493,0.002812,0.002908,0.009636,0.001417,0.006020,0.020663,0.007331
1201,1.201,-0.009524,0.005162,0.003903,0.009058,0.005717,0.010214,0.015479,0.012532
1202,1.202,-0.010004,0.003458,0.001340,0.001355,0.001813,0.011493,0.010970,0.007923
1203,1.203,-0.018104,0.000398,-0.000372,-0.001634,0.005523,0.019328,0.010195,-0.001584
1204,1.204,-0.016893,0.000738,-0.002749,0.001115,0.006832,0.022393,0.000282,-0.007892
1205,1.205,-0.013670,-0.001796,0.001466,0.005386,0.005712,0.023236,-0.006610,-0.011160
1206,1.206,-0.014353,-0.004993,-0.000239,0.006093,0.003849,0.015470,-0.012835,-0.024919
1207,1.207,-0.015043,0.001466,-0.000765,-0.004547,0.004821,0.012431,-0.018381,-0.011952
1208,1.208,-0.018627,0.000660,-0.007537,-0.012123,0.003733,-0.001621,-0.023589,-0.006923
1209,1.209,-0.012066,-0.003525,-0.001106,-0.002428,0.002939,-0.011784,-0.020847,0.000644
1210,1.210,-0.012789,-0.001271,-0.001934,0.001368,0.006188,-0.006226,-0.013030,0.001953
1211,1.211,-0.010490,0.003681,-0.002587,0.002463,0.005750,-0.001186,-0.007756,0.000725
1212,1.212,-0.013946,-0.000502,-0.000534,-0.004722,0.002802,0.012658,-0.005013,0.010996
1213,1.213,-0.010829,0.001230,0.003710,-0.014975,0.004609,0.014496,-0.010915,0.012311
1214,1.214,-0.011270,0.000766,-0.002711,-0.018985,-0.000687,0.009400,-0.005653,0.013459
1215,1.215,-0.004465,0.000473,-0.000168,-0.015220,-0.002947,0.007855,0.000792,0.016646
1216,1.216,-0.012891,-0.000665,0.002044,-0.011974,-0.003698,0.000891,0.003344,0.011378
1217,1.217,-0.007301,-0.001636,0.002740,-0.006711,-0.002090,-0.005400,0.008589,0.012207
1218,1.218,-0.006285,-0.001245,0.005806,-0.005846,-0.002657,-0.004366,0.006568,0.011354
1219,1.219,0.000134,-0.002203,0.002956,0.001949,0.003046,-0.009566,0.012325,0.006105
1220,1.220,-0.000730,0.002075,0.006528,0.002995,-0.003925,-0.006818,0.005394,0.008125
1221,1.221,-0.007699,0.003819,-0.000395,0.002167,0.002479,-0.007658,0.004560,0.011160
1222,1.222,-0.005038,0.004385,0.004871,0.006390,0.004992,-0.008353,0.010482,0.005926
1223,1.223,0.000818,0.004940,0.000323,0.010099,0.007152,-0.011949,0.005252,0.007967
1224,1.224,-0.001458,0.010050,0.006257,0.008044,0.010648,-0.008966,0.005938,0.006295
1225,1.225,-0.000870,0.009397,0.002550,0.008506,0.001110,-0.004986,-0.000969,0.005816
1226,1.226,0.000722,-0.000045,0.007466,0.011320,-0.005896,-0.008622,-0.003649,0.001098
1227,1.227,-0.002265,0.001329,0.001728,0.013792,-0.009693,-0.001784,-0.006161,0.008064
1228,1.228,0.001171,0.000168,-0.006720,0.006783,-0.006569,-0.009173,-0.005475,0.007263
1229,1.229,0.007299,-0.002523,-0.006536,-0.000241,-0.006327,-0.026714,-0.002753,0.000197
1230,1.230,0.007496,0.003072,-0.009733,-0.003376,-0.007444,-0.029535,-0.004770,0.001087
1231,1.231,0.012914,-0.002163,-0.008698,-0.004291,-0.006695,-0.025424,-0.003063,0.000455
1232,1.232,0.001271,-0.001315,-0.005975,0.003433,-0.012682,-0.018569,-0.003563,-0.000166
1233,1.233,-0.000595,0.002910,-0.001734,0.008621,-0.024235,-0.019438,-0.005081,0.000392
1234,1.234,-0.002276,0.003593,-0.001034,0.009414,-0.036117,-0.023653,-0.007276,0.002136
1235,1.235,0.001619,0.000056,0.001031,0.008521,-0.040728,-0.015189,-0.006947,-0.004574
1236,1.236,0.002638,0.004286,-0.000627,0.006271,-0.036711,-0.002694,-0.008824,-0.003663
1237,1.237,-0.000760,-0.000960,0.002293,0.001325,-0.017804,0.002351,-0.009857,-0.002768
1238,1.238,0.000092,-0.008734,0.002843,-0.008179,0.001266,0.012973,-0.004812,-0.006455
1239,1.239,-0.000933,-0.005683,-0.001344,-0.020748,0.023553,0.022564,-0.001303,-0.012865
1240,1.240,-0.003643,-0.006523,0.002752,-0.019097,0.050583,0.006075,0.001688,-0.010306
1241,1.241,0.003114,-0.012444,-0.002965,-0.020674,0.054114,-0.009576,-0.001265,-0.008078
1242,1.242,0.005647,-0.010252,-0.005124,-0.013804,0.037687,-0.019807,-0.002882,-0.012961
1243,1.243,-0.000462,-0.010924,-0.001530,-0.010146,0.028881,-0.018026,-0.004173,-0.008715
1244,1.244,0.000032,-0.015163,0.000203,-0.011198,0.020755,-0.026561,-0.003101,-0.004636
1245,1.245,0.001878,-0.006370,0.006663,-0.001755,0.013479,-0.031207,-0.001357,-0.004102
1246,1.246,0.003383,0.010029,0.004151,0.004470,0.002330,-0.018768,-0.004686,0.001019
1247,1.247,0.002692,0.012214,0.003495,0.003431,-0.011862,-0.003611,-0.002778,0.003111
1248,1.248,0.000997,0.010171,0.005542,-0.006075,-0.024873,0.022888,0.002850,0.002665
1249,1.249,0.000492,0.008293,0.002509,-0.007290,-0.050235,0.040955,0.003582,0.002208
1250,1.250,0.005914,-0.000194,0.004209,0.009765,-0.090301,0.057347,0.002798,0.000740
1251,1.251,0.006433,0.001296,0.001682,0.017010,-0.074372,0.066133,-0.006619,-0.002247
1252,1.252,-0.003017,-0.008374,-0.003386,0.019163,-0.040488,0.063432,-0.003006,0.002550
1253,1.253,0.000563,-0.009575,-0.001359,0.017078,-0.000685,0.061071,0.004683,-0.000440
1254,1.254,0.006006,-0.015190,0.000321,0.015148,0.036582,0.031820,0.001564,0.002478
1255,1.255,0.002842,-0.016230,0.002003,0.013391,0.051009,0.019992,0.002340,0.004033
1256,1.256,0.005435,-0.015416,-0.005787,-0.000543,0.055460,0.016461,-0.000260,-0.000169
1257,1.257,0.004491,-0.009530,-0.004792,-0.013639,0.067349,0.006661,0.003381,0.000347
1258,1.258,0.002209,-0.007355,-0.012092,-0.032340,0.063845,0.003794,0.003974,-0.001168
1259,1.259,0.007044,-0.003836,-0.007553,-0.034804,0.027524,0.006498,0.006940,0.000003
1260,1.260,0.002768,0.000359,0.000207,-0.023725,0.003389,-0.010755,0.002813,-0.000355
1261,1.261,0.009161,0.006746,0.001191,-0.001307,-0.009755,-0.026309,0.009507,-0.006156
1262,1.262,0.004906,0.005857,0.003868,0.001495,-0.005814,-0.020208,0.008590,-0.005370
1263,1.263,0.011822,0.003613,0.001311,0.004134,0.005071,-0.003434,0.009369,-0.009144
1264,1.264,0.007249,0.002897,-0.002427,0.011334,0.014941,0.007772,0.007093,-0.007151
1265,1.265,0.008109,0.004546,-0.006001,0.013466,0.017869,0.009834,0.009054,-0.010205
1266,1.266,0.002884,0.004000,-0.007714,0.007329,-0.001194,-0.018050,-0.000480,-0.010697
1267,1.267,0.000875,0.001427,-0.007225,0.009155,-0.008412,-0.037993,0.000834,-0.005924
1268,1.268,-0.006016,0.007481,-0.001498,-0.002701,-0.014945,-0.034424,-0.005457,-0.000122
1269,1.269,-0.001396,0.001517,0.002200,0.004889,-0.016908,-0.011393,-0.013268,0.002112
1270,1.270,-0.000489,0.000810,-0.002745,0.011807,-0.011252,0.003528,-0.003807,-0.004309
1271,1.271,0.001778,0.004347,0.001451,0.008062,-0.002731,0.006297,-0.015153,-0.003465
1272,1.272,-0.000178,0.006023,0.005468,0.007026,0.007994,0.008767,-0.007542,0.001785
1273,1.273,-0.000602,0.011235,0.003904,0.010061,0.012127,0.006715,-0.011577,0.001106
1274,1.274,-0.002210,0.003424,0.006911,0.014603,0.013391,0.004846,-0.002745,0.006856
1275,1.275,0.000407,0.004406,0.002147,0.010351,0.007896,0.006883,0.000519,0.001607
1276,1.276,-0.003731,0.003538,0.002627,0.005090,0.011022,0.015494,0.007827,-0.001957
1277,1.277,0.001602,0.011280,0.000912,0.007113,0.010258,0.011052,0.001431,0.002255
1278,1.278,-0.000330,0.012253,-0.001658,0.005415,0.011193,0.007119,0.002294,-0.001810
1279,1.279,0.009246,0.011378,0.000496,0.002525,0.002829,0.003502,0.000116,0.000728
1280,1.280,-0.011452,0.007138,0.001636,0.000985,-0.014156,-0.011301,0.003698,-0.003505
1281,1.281,0.009454,0.010852,0.001938,-0.000224,-0.021334,-0.033731,0.004222,0.001729
1282,1.282,-0.004135,0.000201,0.000898,-0.000572,-0.019017,-0.036567,0.002546,-0.001842
1283,1.283,0.003246,-0.004358,-0.002179,-0.002436,-0.012817,-0.022818,0.009342,-0.002373
1284,1.284,0.001139,0.002580,-0.000351,-0.002101,-0.010840,-0.005496,0.006667,-0.004082
1285,1.285,-0.000790,0.001398,-0.005626,-0.007188,-0.009034,0.001182,0.004174,0.003692
1286,1.286,-0.006265,-0.006387,-0.006328,-0.014981,-0.001315,0.003351,0.007954,0.009264
1287,1.287,-0.001080,-0.005370,-0.004329,-0.009757,0.002856,0.001667,0.008703,0.010274
1288,1.288,-0.002490,-0.006207,-0.000122,-0.016227,-0.000732,0.010279,0.007088,0.003839
1289,1.289,0.001675,-0.005361,-0.001845,-0.010364,-0.008368,0.008899,0.011242,-0.000398
1290,1.290,-0.001934,-0.001629,-0.005433,-0.005195,-0.007184,0.010411,0.018103,0.006531
1291,1.291,0.003756,-0.010917,-0.003257,-0.005937,-0.007842,0.011719,0.020904,0.009248
1292,1.292,-0.001360,0.000430,-0.005320,-0.012918,-0.005134,0.010834,0.016754,0.013501
1293,1.293,0.001465,-0.004118,0.000401,-0.012095,-0.007212,0.007936,0.022073,0.011324
1294,1.294,0.002431,-0.002742,0.002904,-0.004316,-0.014910,0.003494,0.014369,0.004926
1295,1.295,-0.001186,0.001000,0.005087,-0.005308,-0.011807,-0.000654,0.011405,-0.000966
1296,1.296,-0.004623,-0.002178,0.004415,-0.004413,-0.005307,-0.004339,0.008781,0.001265
1297,1.297,-0.004006,-0.001118,0.003910,-0.005172,-0.001005,-0.007852,0.001072,0.001981
1298,1.298,-0.003394,0.005356,0.003403,-0.002890,-0.003138,-0.007293,-0.006131,-0.001020
1299,1.299,0.000260,0.004553,0.000865,-0.000798,-0.002418,-0.006735,-0.006901,-0.003853
1300,1.300,-0.003875,0.000871,0.002047,0.008741,-0.010686,-0.012452,-0.014612,-0.005341
1301,1.301,0.000292,-0.008400,0.004931,0.007489,-0.007493,-0.010233,-0.026043,-0.006490
1302,1.302,0.000886,0.000430,0.007474,0.013859,-0.002240,-0.008227,-0.033599,-0.004428
1303,1.303,-0.003274,-0.005117,0.002900,0.010744,0.002410,-0.005223,-0.034901,-0.001854
1304,1.304,0.003220,-0.002035,0.002398,0.009811,-0.000002,-0.009306,-0.033654,0.000555
1305,1.305,-0.000940,-0.001154,0.007659,0.012594,0.005375,-0.005813,-0.016512,0.005681
1306,1.306,-0.003078,-0.003649,0.008347,0.018576,0.006175,-0.002852,-0.009184,0.013515
1307,1.307,-0.003693,0.001640,0.004129,0.014906,0.006759,-0.000113,-0.006940,0.025057
1308,1.308,-0.007874,-0.000335,0.002465,0.012940,0.003921,-0.002824,-0.004869,0.026623
1309,1.309,-0.006136,0.005477,0.006044,0.009969,0.009644,0.001578,0.008202,0.036299
1310,1.310,-0.003574,0.007733,0.003024,0.004810,0.010215,0.007180,0.013317,0.032602
1311,1.311,-0.002369,0.004238,-0.003367,-0.002873,0.003643,0.006334,0.011825,0.022302
1312,1.312,-0.002011,0.001258,-0.004181,-0.001730,0.006022,-0.001626,0.015914,0.004218
1313,1.313,-0.007757,0.003010,-0.004991,-0.004290,0.008054,0.003467,0.014742,-0.018103
1314,1.314,0.000024,-0.000490,-0.002762,-0.010078,0.007233,0.006015,0.011535,-0.032981
1315,1.315,-0.001006,-0.002634,-0.004764,-0.010645,0.006580,0.010109,0.000026,-0.046665
1316,1.316,-0.005596,-0.001404,-0.000511,-0.015465,0.003571,0.009299,-0.001500,-0.049009
1317,1.317,-0.004776,0.003705,-0.000996,-0.005919,0.002924,0.007118,-0.002871,-0.033417
1318,1.318,-0.001082,-0.004045,0.005805,-0.001805,0.003132,0.001194,-0.009157,-0.014931
1319,1.319,-0.001805,-0.009261,0.001280,0.001964,0.006890,-0.010445,-0.010210,-0.007597
1320,1.320,-0.004900,-0.006534,0.002185,0.001018,0.007268,-0.029111,-0.013298,-0.009739
1321,1.321,-0.004455,0.004644,0.002911,-0.004153,0.004102,-0.046294,-0.021798,-0.007660
1322,1.322,0.003273,0.003134,-0.003473,0.008104,0.000108,-0.044059,-0.025068,-0.005756
1323,1.323,0.006421,0.007205,-0.005960,0.003105,-0.003536,-0.037976,-0.026131,-0.004029
1324,1.324,0.001110,-0.001572,-0.008113,-0.001388,-0.003963,-0.010098,-0.012143,0.000565
1325,1.325,0.005600,0.004031,-0.007395,-0.005388,-0.006929,0.009775,-0.006095,0.001949
1326,1.326,-0.000403,0.007093,-0.003122,-0.004159,-0.010585,0.013204,0.006893,-0.001763
1327,1.327,0.000199,-0.001342,0.000975,-0.003109,-0.007655,0.022858,0.008551,-0.004978
1328,1.328,0.000793,-0.011638,0.001528,-0.002046,-0.008965,0.025525,0.006976,-0.003960
1329,1.329,0.006458,-0.007561,-0.002665,0.002568,-0.004017,0.033400,0.016563,0.002470
1330,1.330,-0.000567,-0.014991,-0.006854,-0.004335,-0.015156,0.050074,0.017865,0.008403
1331,1.331,-0.002866,-0.011278,0.001979,-0.001764,-0.008869,0.042567,0.009030,0.010952
1332,1.332,0.006353,-0.000959,0.005739,0.001990,-0.014914,0.022026,0.007966,0.007245
1333,1.333,-0.000011,0.000378,0.004755,0.008440,-0.012821,0.008096,0.000634,0.002354
1334,1.334,-0.001120,0.004077,0.001732,0.005920,-0.002241,-0.024396,-0.004000,0.001856
1335,1.335,-0.002233,0.003043,0.004465,0.009658,0.002273,-0.037734,-0.010006,0.001347
1336,1.336,-0.005043,-0.002223,0.000257,0.018969,0.000871,-0.017908,-0.007905,0.004905
1337,1.337,0.000775,0.002313,0.005526,0.022689,0.002020,-0.007209,-0.011564,0.005238
1338,1.338,-0.004565,-0.000253,0.006235,0.025916,-0.005803,-0.017143,-0.005925,0.003183
1339,1.339,-0.002624,-0.000956,-0.000661,0.020675,-0.011113,-0.008442,-0.002333,-0.002606
1340,1.340,-0.010994,0.001051,0.003943,0.008513,-0.008482,-0.022243,0.006834,-0.006892
1341,1.341,-0.003301,0.001542,0.001445,0.000080,0.004299,-0.034690,0.007889,-0.003238
1342,1.342,-0.008636,0.002029,0.006729,-0.007523,0.013525,-0.014484,0.004540,-0.002637
1343,1.343,0.001604,0.003549,-0.003893,-0.020047,0.015143,0.010150,0.003383,0.003030
1344,1.344,-0.005406,0.001353,-0.011467,-0.025129,-0.004886,0.033110,0.002399,0.002265
1345,1.345,-0.001761,0.005253,-0.010077,-0.039005,-0.013079,0.030183,0.006491,0.001495
1346,1.346,-0.000817,0.002720,-0.006313,-0.029714,-0.015505,0.022009,0.007037,-0.000298
1347,1.347,-0.001910,0.002383,-0.003073,-0.014518,-0.004379,0.024314,0.004899,0.000117
1348,1.348,0.000720,0.001192,-0.002037,-0.012521,0.001684,0.026436,0.005299,0.004749
1349,1.349,-0.007134,0.000852,-0.006588,-0.021863,0.014689,0.024339,0.001127,0.002943
1350,1.350,0.004312,0.001193,-0.004034,-0.020206,0.012991,0.033581,0.004575,0.003326
1351,1.351,0.005771,-0.003892,0.002915,-0.009580,-0.010023,0.018303,0.007514,0.002705
1352,1.352,0.007068,-0.003236,-0.001640,0.000024,-0.013244,-0.012357,0.000982,-0.002463
1353,1.353,0.003301,-0.001546,-0.005854,0.001168,-0.004449,-0.016787,0.000052,-0.006089
1354,1.354,0.002244,-0.003245,0.001095,0.008905,-0.001731,-0.012900,-0.000854,-0.005632
1355,1.355,-0.000835,-0.001733,-0.001602,0.005806,0.015525,0.012477,0.001302,0.000740
1356,1.356,0.003706,-0.001390,-0.007512,-0.006433,0.026705,0.022301,0.001971,-0.001858
1357,1.357,-0.000543,-0.003421,-0.006831,-0.014955,0.045156,0.007438,-0.003769,0.003331
1358,1.358,0.010954,0.002330,0.000944,-0.013506,0.052452,-0.006236,-0.001552,0.008179
1359,1.359,0.005875,0.003169,-0.000089,-0.006656,0.045869,-0.003831,-0.002203,0.009808
1360,1.360,0.004364,-0.000558,0.004452,-0.007933,0.035744,-0.005977,-0.000476,0.005685
1361,1.361,0.005729,0.000118,0.003583,-0.015824,0.033913,-0.016071,0.004805,0.010345
1362,1.362,0.006924,0.001796,0.005754,-0.002238,0.015341,0.000741,0.002812,0.006015
1363,1.363,0.007978,-0.002278,0.005048,0.014389,0.013018,-0.010354,0.004535,0.000658
1364,1.364,0.006991,0.003463,0.005519,0.025434,-0.002489,-0.012285,-0.000694,-0.004392
1365,1.365,0.000601,0.007173,0.007174,0.023280,-0.012583,-0.014042,-0.000011,-0.006245
1366,1.366,-0.001902,0.005123,0.000379,0.028736,-0.021833,-0.005470,0.003017,-0.014021
1367,1.367,0.003379,0.006801,-0.000486,0.020139,-0.020083,-0.019227,0.003504,-0.017222
1368,1.368,0.005458,0.005091,-0.008295,0.006138,-0.018501,-0.047021,0.000945,-0.012768
1369,1.369,0.009746,0.006602,-0.003080,0.004154,-0.017094,-0.106940,0.003975,-0.010299
1370,1.370,0.001004,0.005399,0.003311,-0.004427,-0.020772,-0.063638,0.004304,-0.005097
1371,1.371,0.004773,0.004207,0.000735,-0.006075,-0.019705,-0.024401,0.001771,0.001314
1372,1.372,0.001606,-0.001540,0.001380,-0.004846,-0.018612,-0.002935,0.000779,0.003864
1373,1.373,0.004710,-0.009319,0.004894,0.003851,-0.015812,0.029520,-0.002230,0.001672
1374,1.374,0.005631,-0.006263,-0.000895,0.006991,-0.009772,0.047113,-0.005737,0.008116
1375,1.375,-0.003783,-0.010830,0.002788,0.005927,-0.001176,0.063220,-0.006842,0.008965
1376,1.376,0.002540,-0.006589,-0.003673,-0.004433,0.004529,0.077834,-0.000305,0.005255
1377,1.377,0.001591,-0.004369,0.000537,-0.005800,0.003648,0.082473,-0.001030,0.000371
1378,1.378,0.004697,-0.003682,-0.000158,0.000436,0.008361,0.062763,-0.006815,-0.006546
1379,1.379,-0.001666,0.005791,0.001849,-0.002807,-0.000953,0.037601,-0.013622,-0.009229
1380,1.380,-0.000747,-0.001149,0.000142,-0.003834,-0.009579,0.027970,-0.007059,-0.008348
1381,1.381,0.003037,0.002568,0.002991,0.002589,-0.012650,0.019344,-0.002708,-0.010504
1382,1.382,-0.001804,0.003580,0.005490,0.001720,-0.019818,0.000364,0.004356,-0.006907
1383,1.383,-0.001219,0.004604,0.002408,0.001014,-0.024324,-0.011893,0.010902,-0.001114
1384,1.384,0.000547,0.003762,0.002712,0.003032,-0.018372,-0.009601,0.013548,-0.003272
1385,1.385,-0.002943,0.004610,-0.000888,0.003531,-0.014624,-0.011561,0.015845,0.004559
1386,1.386,-0.003204,0.003932,-0.003971,-0.002896,-0.003942,-0.013364,0.015262,0.011879
1387,1.387,-0.007031,0.001900,-0.006045,-0.000351,0.012983,-0.021731,0.019587,0.011082
1388,1.388,-0.008485,0.000205,-0.005070,-0.005594,0.015185,-0.017061,0.020192,0.017048
1389,1.389,-0.003341,-0.001488,-0.007482,-0.007620,0.017214,-0.012896,0.012511,0.020813
1390,1.390,0.001631,-0.003016,-0.005834,0.001848,0.019113,-0.011611,0.011592,0.020177
