Frame,Time,RightBicepsbrachiicaputbrevis,RightTricepsbrachiicaputlongus,LeftBicepsbrachiicaputbrevis,LeftTricepsbrachiicaputlongus,RightTrapeziusdescendens,LeftTrapeziusdescendens,RightLatissimusDorsi,LeftLatissimusDorsi,
0,0.000,-0.005788,-0.012711,-0.001393,0.010392,0.006592,-0.005858,0.005921,0.000274,
1,0.001,-0.010063,-0.006588,-0.000194,0.008806,0.003485,-0.016460,0.003372,-0.003912,
2,0.002,-0.006809,-0.003547,-0.002365,0.000015,-0.001107,-0.025192,0.005556,-0.000176,
3,0.003,-0.005008,0.001481,-0.006531,-0.014559,0.001382,-0.032470,0.003506,0.001849,
4,0.004,-0.003592,0.002099,-0.010659,-0.023978,0.000670,-0.024545,0.000439,0.000170,
5,0.005,0.001904,0.009597,-0.003015,-0.036173,0.005498,-0.007041,-0.003643,-0.002665,
6,0.006,-0.004317,0.006289,0.000041,-0.033682,0.003739,0.014354,-0.000116,-0.001107,
7,0.007,-0.004397,0.006848,-0.000779,-0.037426,0.000822,0.021864,-0.002341,0.003963,
8,0.008,-0.001225,0.010734,0.005116,-0.043488,-0.001734,0.028432,-0.002023,-0.002405,
9,0.009,-0.002825,0.012585,0.002909,-0.028874,-0.003930,0.024799,-0.007790,-0.003180,
10,0.010,-0.001723,0.012918,0.003578,-0.011536,-0.001076,0.017415,-0.005274,-0.006806,
11,0.011,0.000351,0.015598,0.003060,0.000114,-0.000757,0.010952,-0.007499,-0.007378,
12,0.012,-0.005545,0.016924,0.001377,-0.005456,0.000235,0.001763,-0.003966,0.002119,
13,0.013,0.001325,0.021260,0.002892,-0.014177,0.000542,-0.022428,0.001768,-0.001883,
14,0.014,0.001481,0.012649,-0.000138,-0.018640,-0.001336,-0.038717,0.002424,-0.005522,
15,0.015,0.005086,0.011326,0.002736,-0.022582,-0.004708,-0.033964,0.003081,-0.002252,
16,0.016,0.005024,0.008014,0.002393,-0.020625,-0.001679,-0.018210,0.000008,-0.001194,
17,0.017,0.012359,-0.002466,0.002729,-0.031294,-0.002874,0.001015,0.000497,0.001525,
18,0.018,0.014446,-0.003974,-0.002317,-0.029144,0.001302,0.013044,-0.000027,0.002365,
19,0.019,0.018481,-0.002960,-0.004292,-0.021656,0.005282,0.019110,0.001137,0.006038,
20,0.020,0.021799,-0.008677,-0.005921,-0.002320,-0.001517,0.012711,0.003146,0.005314,
21,0.021,0.016547,-0.016025,0.001690,0.006123,0.004838,0.006996,0.002107,0.014660,
22,0.022,0.016283,-0.005840,-0.001328,0.008793,-0.001111,0.001958,0.005306,0.015889,
23,0.023,0.022976,-0.004640,0.001386,0.020177,0.001042,0.003485,0.001395,0.016955,
24,0.024,0.019025,-0.018562,0.002235,0.010328,-0.003876,-0.000430,0.006112,0.011309,
25,0.025,0.019026,-0.013065,-0.001465,0.005073,-0.002203,-0.016242,0.001865,-0.000156,
26,0.026,0.019079,-0.004741,-0.002111,-0.006379,0.000629,-0.048434,0.001335,-0.013879,
27,0.027,0.014740,0.002687,-0.006286,-0.010550,0.001088,-0.070596,-0.002234,-0.015595,
28,0.028,0.020456,0.009397,-0.003377,-0.006143,0.002208,-0.064392,0.002826,-0.020492,
29,0.029,0.017339,0.015390,0.004381,-0.009525,0.000974,-0.043213,0.002128,-0.024869,
30,0.030,0.013184,0.020674,0.001165,-0.010211,0.006637,-0.010048,-0.003644,-0.023336,
31,0.031,0.019086,0.019367,0.004187,-0.010911,0.005709,0.011751,0.001582,-0.019472,
32,0.032,0.011009,0.010682,-0.000362,0.001477,0.004952,0.023124,0.003595,-0.004557,
33,0.033,0.011756,0.004924,0.002170,0.006712,0.000002,0.047470,-0.003358,0.001512,
34,0.034,0.010702,0.003747,0.002838,0.008362,0.002984,0.049639,-0.009801,-0.000345,
35,0.035,0.011355,0.000895,0.000819,0.004426,0.001236,0.051452,-0.007277,-0.002021,
36,0.036,0.016329,-0.005128,-0.000851,0.003352,-0.002339,0.042475,-0.002049,0.008580,
37,0.037,0.011292,-0.003042,-0.006046,-0.004293,-0.004546,0.034535,-0.000032,0.001640,
38,0.038,0.004400,-0.008021,-0.001127,-0.009377,-0.004214,0.014003,0.004184,0.002816,
39,0.039,0.007120,-0.003883,-0.001623,0.004711,0.001492,0.000342,0.001292,0.006000,
40,0.040,0.007976,0.002415,0.004780,0.010788,-0.002755,-0.016539,0.002799,0.006979,
41,0.041,0.002859,0.003133,0.000545,-0.005875,-0.000592,-0.031441,0.004982,0.002396,
42,0.042,0.004999,0.005202,-0.003157,-0.012349,-0.001302,-0.024832,-0.001461,0.003224,
43,0.043,0.000973,0.007108,0.001739,-0.014240,-0.003013,-0.022506,-0.002313,0.002525,
44,0.044,-0.001642,0.001283,0.007448,-0.004860,0.002181,-0.003797,0.000216,0.008883,
45,0.045,-0.006038,-0.000969,0.008073,-0.006472,0.000111,0.003436,-0.005038,0.013017,
46,0.046,-0.004041,0.000994,0.004498,-0.004899,-0.000430,0.009876,-0.007080,0.009225,
47,0.047,-0.006571,-0.004768,-0.003752,-0.006226,-0.000958,0.003743,-0.000150,0.009830,
48,0.048,-0.009718,-0.005457,-0.002714,0.005062,-0.003496,-0.020074,0.002549,0.012784,
49,0.049,-0.008985,-0.003449,-0.003702,0.003484,0.001541,-0.035846,-0.003375,0.011015,
50,0.050,-0.010599,0.000748,0.000862,0.010331,0.003527,-0.032403,-0.001187,0.005223,
51,0.051,-0.011188,-0.002135,0.001697,0.004003,0.002983,-0.013044,0.002363,0.004513,
52,0.052,-0.015944,0.000381,-0.000489,0.004943,-0.002269,-0.005626,0.002869,0.000943,
53,0.053,-0.013310,-0.005684,0.001529,0.005850,-0.001607,0.001001,0.002364,-0.002097,
54,0.054,-0.014883,-0.001453,-0.002686,0.008420,0.001401,0.015006,0.003882,-0.007306,
55,0.055,-0.016111,0.009976,-0.006710,0.009144,-0.000314,0.009317,0.003537,-0.007943,
56,0.056,-0.017339,0.021686,-0.004143,0.003822,-0.000839,0.007553,-0.000357,-0.013613,
57,0.057,-0.015400,0.010946,-0.002933,0.004424,-0.003042,0.011995,-0.003903,-0.014198,
58,0.058,-0.018010,0.003972,-0.005770,0.003847,-0.002703,-0.003130,0.001174,-0.009225,
59,0.059,-0.022266,0.002742,-0.000012,0.004277,-0.004555,-0.029213,0.003208,-0.009666,
60,0.060,-0.020150,-0.002861,-0.002527,0.005734,-0.006894,-0.039446,-0.001019,-0.006743,
61,0.061,-0.019256,-0.001875,-0.000322,0.003499,-0.001816,-0.029209,-0.001527,-0.006191,
62,0.062,-0.022403,-0.006427,0.001702,0.000605,-0.001140,-0.008286,-0.000002,-0.003122,
63,0.063,-0.015196,-0.005558,-0.002519,0.004113,-0.001633,0.010681,-0.000334,-0.001906,
64,0.064,-0.011939,-0.012403,0.001529,-0.000988,0.001242,0.022696,0.005263,0.000640,
65,0.065,-0.014428,-0.022600,-0.002021,0.005375,0.002762,0.033376,-0.001650,0.005865,
66,0.066,-0.018416,-0.012880,0.004043,0.007835,0.008816,0.030929,-0.002479,0.011064,
67,0.067,-0.013029,-0.004041,-0.003720,0.007086,0.004578,0.036081,0.000070,0.017409,
68,0.068,-0.014909,0.003748,-0.000682,0.006345,0.006763,0.037354,0.000767,0.016484,
69,0.069,-0.007940,0.002743,0.003851,-0.003141,0.000362,0.041452,0.002810,0.017082,
70,0.070,-0.016279,-0.005662,-0.000397,-0.010028,0.001227,0.028619,-0.002922,0.006406,
71,0.071,-0.013007,0.004639,-0.001079,-0.018727,0.001911,0.013247,0.000817,-0.004209,
72,0.072,-0.013987,0.005969,-0.001755,-0.028894,0.002596,-0.005112,0.000148,-0.011064,
73,0.073,-0.014815,0.004786,0.003971,-0.024705,-0.000429,-0.007379,-0.000341,-0.019740,
74,0.074,-0.012308,-0.000765,0.000243,-0.015832,0.001272,-0.005110,0.002543,-0.022831,
75,0.075,-0.013026,0.000270,0.003771,-0.008030,0.002794,-0.003035,-0.000997,-0.009093,
76,0.076,-0.015090,-0.000542,0.003233,-0.004971,0.006998,-0.001138,-0.002176,-0.007228,
77,0.077,-0.013470,0.002012,0.002703,0.005319,0.001767,-0.002733,0.002573,0.004532,
78,0.078,-0.008374,0.002711,0.003180,0.003929,0.001116,0.001868,0.002068,0.002935,
79,0.079,-0.012046,0.007619,0.001971,0.005090,0.001644,-0.002100,0.000386,0.006898,
80,0.080,-0.005323,0.008124,-0.004443,0.006087,0.003349,0.001705,-0.000116,0.010513,
81,0.081,-0.008215,0.002907,0.000116,0.003029,0.001851,0.000795,0.000228,0.011450,
82,0.082,-0.005893,0.003596,-0.000733,0.005721,0.000694,-0.008484,-0.000950,0.001971,
83,0.083,-0.000928,0.007782,-0.004441,0.013493,0.003570,-0.009492,-0.001288,0.000818,
84,0.084,0.000803,0.008240,-0.003743,0.014520,-0.002160,-0.003820,0.001072,-0.000145,
85,0.085,0.002184,0.008708,0.001994,0.017196,-0.001299,-0.008949,-0.001303,-0.003115,
86,0.086,0.001381,0.005636,0.002636,0.011247,-0.003473,-0.006146,0.000050,-0.005741,
87,0.087,0.001600,0.002738,0.004614,0.010549,-0.001436,-0.001892,0.001747,-0.004818,
88,0.088,0.008169,0.003054,0.000364,0.011181,-0.000923,-0.002559,0.001590,-0.004084,
89,0.089,0.010826,0.002023,0.004382,0.008116,0.001942,-0.007435,0.001775,0.002365,
90,0.090,0.005941,-0.001681,0.002829,-0.000656,0.003458,-0.006919,0.000772,-0.000140,
91,0.091,0.005804,-0.009224,0.000609,-0.011736,0.000914,-0.008654,-0.003689,0.004609,
92,0.092,0.008040,-0.012172,-0.002431,-0.015370,-0.000270,-0.004671,-0.001635,0.008312,
93,0.093,0.014620,-0.009219,0.000418,-0.016322,0.002589,-0.001185,0.000064,0.004762,
94,0.094,0.016961,-0.003411,-0.003148,-0.009036,0.000051,-0.002419,0.001240,0.004254,
95,0.095,0.020818,-0.011108,-0.009219,0.004960,-0.005164,-0.007202,-0.001949,0.001387,
96,0.096,0.016785,-0.001605,-0.001443,-0.001133,-0.005807,-0.011464,0.000255,0.000902,
97,0.097,0.014490,-0.000400,-0.000450,0.004430,-0.000902,-0.011981,-0.002593,-0.000269,
98,0.098,0.014762,-0.005947,0.000361,-0.007391,-0.003935,-0.010476,0.003137,-0.001434,
99,0.099,0.014047,-0.008948,0.001175,-0.002832,-0.001066,-0.017423,0.000606,-0.002429,
100,0.100,0.015384,-0.000479,-0.005768,-0.006862,-0.000559,-0.031126,-0.001574,-0.000732,
101,0.101,0.017412,-0.001484,0.002654,0.004478,-0.000904,-0.021809,-0.003564,-0.000388,
102,0.102,0.011742,0.001558,-0.000574,0.002992,0.002968,-0.006569,0.000671,0.001463,
103,0.103,0.012352,0.007957,0.000411,-0.012134,0.001420,-0.000491,0.000178,-0.000906,
104,0.104,0.015839,0.003706,-0.000458,-0.018107,0.001725,0.008787,-0.003329,-0.005955,
105,0.105,0.012790,0.010584,-0.001326,-0.012445,0.000512,0.010477,-0.006296,-0.007949,
106,0.106,0.013326,0.007840,0.000838,-0.007296,-0.005242,0.008920,-0.002358,-0.007415,
107,0.107,0.012882,0.017241,0.001479,0.000346,-0.002723,0.007508,-0.001812,-0.006872,
108,0.108,0.014153,0.018335,-0.001587,0.001703,-0.006449,0.013701,-0.001440,-0.003303,
109,0.109,0.016278,0.015031,0.000080,0.002868,-0.004427,0.012593,0.002451,-0.004463,
110,0.110,0.017404,0.001304,-0.001456,0.008409,-0.002754,0.013505,0.000944,-0.000568,
111,0.111,0.019896,-0.007979,0.003586,0.007348,-0.007990,0.006986,0.002135,-0.003085,
112,0.112,0.017041,-0.023109,0.001530,0.008135,-0.005949,0.009467,0.000124,0.001142,
113,0.113,0.017593,-0.008867,0.002013,0.008912,-0.008976,0.011642,-0.004894,-0.001731,
114,0.114,0.020185,-0.014384,-0.000870,0.006654,-0.007278,0.000976,0.000040,-0.000202,
115,0.115,0.018750,-0.022743,-0.002385,0.008606,-0.004750,-0.015936,0.001750,0.002835,
116,0.116,0.014829,-0.027206,0.002670,0.002816,-0.006954,-0.013742,-0.003440,0.004855,
117,0.117,0.014655,-0.017490,0.000636,0.008010,-0.005780,-0.003606,0.001486,0.002311,
118,0.118,0.009808,-0.008654,0.004835,0.000213,-0.000066,0.005693,-0.001519,0.003318,
119,0.119,0.006702,0.001653,-0.002763,0.009633,0.002421,0.014167,0.001371,-0.000405,
120,0.120,0.007675,0.000270,0.000282,0.010766,0.003038,0.006563,0.006097,0.002623,
121,0.121,0.007642,-0.000946,-0.004263,0.007538,0.002311,0.005173,-0.000799,0.004614,
122,0.122,0.006624,0.002232,-0.001718,0.010561,0.005288,0.006274,0.003772,0.010284,
123,0.123,0.001095,0.001191,-0.002375,0.007820,0.003534,0.002946,0.002935,0.011036,
124,0.124,-0.002543,0.002013,0.001182,-0.005022,0.005994,-0.012915,0.003615,0.014659,
125,0.125,-0.002615,0.011426,-0.001854,-0.017961,0.000871,-0.046699,-0.001255,0.019446,
126,0.126,-0.004019,0.007677,-0.000152,-0.006085,-0.004061,-0.032426,0.002978,0.018845,
127,0.127,-0.002887,0.006634,0.002382,-0.013625,-0.001050,-0.019328,0.001300,0.015888,
128,0.128,-0.001758,0.007616,0.002038,-0.017588,-0.002781,-0.015532,0.002826,0.008069,
129,0.129,-0.008861,0.004898,-0.000830,-0.006206,-0.001301,0.002486,-0.000193,-0.008988,
130,0.130,-0.007180,0.007405,-0.000480,-0.010702,-0.000163,0.018812,0.002678,-0.016208,
131,0.131,-0.009531,0.018819,-0.002164,-0.028656,0.006198,0.033621,0.006876,-0.022733,
132,0.132,-0.009697,0.013675,-0.007200,-0.035763,0.006965,0.047265,0.006340,-0.024696,
133,0.133,-0.011550,0.002991,-0.002278,-0.010998,0.007736,0.044835,0.002787,-0.026509,
134,0.134,-0.014569,0.001617,0.007177,0.005413,0.005468,0.020095,0.000603,-0.018049,
135,0.135,-0.014554,0.005300,0.008509,0.002553,0.007417,0.016847,0.000962,-0.010467,
136,0.136,-0.006988,0.004257,-0.000276,0.010650,0.004303,0.013937,-0.002558,-0.003581,
137,0.137,-0.009067,0.001195,0.002938,0.003367,0.004741,0.011205,-0.002189,0.000087,
138,0.138,-0.014345,-0.005232,-0.000093,0.009931,-0.000039,0.008821,-0.001818,0.001058,
139,0.139,-0.011538,-0.009488,0.004476,0.007893,0.004155,0.006607,0.000738,-0.002020,
140,0.140,-0.021536,-0.016443,-0.006683,0.006015,0.003625,-0.007623,-0.000932,0.002540,
141,0.141,-0.013355,-0.010043,0.003984,0.021202,0.004114,-0.005760,-0.005280,-0.000012,
142,0.142,-0.011481,-0.012612,0.008055,0.027247,-0.000982,-0.010787,-0.001205,0.002187,
143,0.143,-0.017209,-0.008935,0.006875,0.021624,-0.001678,-0.000078,-0.000679,0.007088,
144,0.144,-0.017712,-0.002537,-0.003440,0.009750,-0.004736,-0.006961,-0.003685,-0.001218,
145,0.145,-0.014206,-0.000003,0.000611,0.002118,0.001676,-0.018259,-0.000787,0.004344,
146,0.146,-0.018325,0.005233,0.001786,0.011757,0.000807,-0.016723,0.001742,0.001272,
147,0.147,-0.013719,0.007271,-0.001411,0.018022,0.001464,-0.029243,0.000058,0.003951,
148,0.148,-0.015578,0.003033,0.003860,0.000977,-0.002099,-0.034317,0.001074,0.003085,
149,0.149,-0.015955,0.008266,-0.000692,-0.016249,0.002116,-0.029744,0.000409,-0.002184,
150,0.150,-0.016193,0.003366,-0.004907,-0.031774,-0.004318,-0.011624,0.000235,0.001351,
151,0.151,-0.013111,0.001676,0.002028,-0.021603,0.001596,0.010752,-0.002459,-0.000360,
152,0.152,-0.010415,0.005705,0.001182,-0.012284,0.003793,0.019611,-0.002781,-0.003259,
153,0.153,-0.011493,0.008221,0.000340,-0.003819,0.004468,0.006026,-0.006469,-0.004792,
154,0.154,-0.013439,0.007036,0.001030,-0.014475,0.001424,0.018514,-0.007618,0.001294,
155,0.155,-0.011538,0.003134,0.001716,-0.010423,0.001935,0.025232,-0.005567,-0.006496,
156,0.156,-0.009871,0.001615,0.002231,0.003438,0.001437,0.023291,-0.004535,-0.001270,
157,0.157,-0.006235,0.003815,-0.000630,0.012729,-0.002778,0.025202,-0.000655,0.001427,
158,0.158,-0.003339,-0.000070,-0.000110,0.007647,-0.002255,0.013401,-0.000166,0.003956,
159,0.159,-0.003202,-0.005805,-0.003143,0.012213,-0.005788,0.002782,-0.003218,0.003278,
160,0.160,-0.009161,-0.007985,0.000759,0.013560,-0.008808,-0.009701,0.000640,0.005307,
161,0.161,-0.008567,-0.010002,-0.000754,0.012386,-0.004040,-0.014760,0.003128,0.011063,
162,0.162,-0.005167,-0.011701,-0.005820,0.011385,-0.002322,-0.013230,-0.003818,0.002613,
163,0.163,0.000849,-0.010019,-0.006491,0.012430,0.001778,-0.017298,-0.002815,0.003634,
164,0.164,0.001245,-0.002220,-0.003432,0.004003,0.003346,-0.008513,-0.001997,0.000590,
165,0.165,-0.001420,-0.001186,-0.003929,-0.003776,0.004577,-0.009536,-0.004538,0.005168,
166,0.166,0.000085,0.001869,-0.002404,-0.004786,0.000731,-0.016837,0.000674,0.002638,
167,0.167,-0.004686,0.008311,-0.006623,-0.007475,0.001289,-0.030900,0.002660,0.003321,
168,0.168,-0.005766,0.019501,-0.001382,-0.015249,0.000153,-0.024813,-0.003099,0.001282,
169,0.169,-0.004859,0.014983,-0.004937,-0.028947,-0.003679,-0.004306,-0.003777,0.000761,
170,0.170,-0.005843,0.010972,-0.001899,-0.027065,-0.000075,0.014903,-0.000239,0.005980,
171,0.171,-0.006173,0.004765,-0.005961,-0.008432,0.000312,0.022268,0.001428,0.006625,
172,0.172,-0.001134,-0.002967,-0.001227,0.003943,0.001542,0.028931,0.000893,-0.002886,
173,0.173,-0.001026,-0.008160,0.001825,0.001773,-0.002633,0.022867,0.004399,-0.001570,
174,0.174,-0.003983,-0.016569,-0.001049,0.007890,-0.002082,0.013553,0.002173,-0.005321,
175,0.175,-0.005426,-0.010950,0.000486,0.006037,-0.003564,0.008453,0.003320,-0.002119,
176,0.176,-0.004520,-0.007860,0.002688,0.004340,0.001550,0.006882,0.004299,-0.003124,
177,0.177,-0.003631,-0.012384,0.001514,0.002826,-0.000451,0.002804,0.002585,-0.002241,
178,0.178,-0.005954,-0.002882,-0.002033,-0.001226,-0.000929,0.001612,0.006935,0.002035,
179,0.179,-0.009789,0.003392,0.002202,-0.002411,-0.002589,0.002625,0.002845,0.005804,
180,0.180,-0.004190,0.000195,-0.000669,0.000824,0.002177,-0.008858,0.003317,0.010759,
181,0.181,-0.002318,0.001233,0.000852,-0.000179,-0.002014,-0.007287,0.000251,0.017732,
182,0.182,-0.003994,0.002110,-0.002186,0.000669,0.002089,-0.014182,-0.000945,0.018614,
183,0.183,-0.004140,0.002977,-0.001855,-0.001870,0.002630,-0.010408,-0.004494,0.014426,
184,0.184,-0.006978,-0.002247,0.003902,0.000347,0.003839,-0.007167,0.002408,0.004483,
185,0.185,-0.006085,-0.002914,0.003067,0.003924,0.002682,-0.006162,0.001359,-0.005102,
186,0.186,-0.004009,0.000145,0.002394,0.000890,0.000840,-0.005348,-0.001369,-0.011287,
187,0.187,-0.003272,0.006578,0.007297,0.008522,-0.000165,-0.002854,-0.003921,-0.012216,
188,0.188,-0.007063,0.000670,0.005609,0.009542,-0.005232,0.002337,0.001284,-0.021594,
189,0.189,-0.001400,0.004390,0.001550,0.015977,-0.004548,-0.008369,-0.000782,-0.015237,
190,0.190,0.004262,0.003708,-0.000987,0.011746,-0.002850,-0.031416,0.002209,-0.018348,
191,0.191,0.004352,0.011985,0.002048,0.008016,-0.002332,-0.021634,-0.001891,-0.010965,
192,0.192,0.001791,0.005393,0.003231,0.003462,-0.002833,-0.013175,-0.001437,-0.003920,
193,0.193,0.000454,-0.007120,0.009666,0.001455,-0.000293,0.001713,-0.002997,-0.001103,
194,0.194,0.004703,-0.005420,0.005097,-0.001579,0.002753,0.015417,0.003861,0.001549,
195,0.195,0.005768,-0.006928,-0.006084,-0.010383,0.002410,0.022674,0.000750,0.002337,
196,0.196,0.011572,0.005590,-0.010666,-0.026794,0.001390,0.020441,-0.002009,-0.002460,
197,0.197,0.013516,0.003899,-0.001032,-0.020186,0.003079,0.018381,-0.002907,0.001874,
198,0.198,0.007758,-0.006739,0.000134,-0.018132,0.001384,0.005317,0.005462,-0.002073,
199,0.199,0.010827,0.002921,0.005712,-0.005085,0.002729,-0.013313,0.002182,0.001588,
200,0.200,0.006179,0.021875,0.008741,0.006782,0.001029,-0.010963,-0.000923,0.005927,
201,0.201,0.014555,0.013767,0.002292,0.008319,0.003213,-0.031247,0.003561,-0.001576,
202,0.202,0.010488,0.001418,-0.003647,0.004263,0.001345,-0.033915,0.004313,-0.004506,
203,0.203,0.006992,0.003619,-0.001470,0.007987,0.000664,-0.011542,0.002037,-0.001694,
204,0.204,0.013998,-0.002467,-0.000807,0.013584,-0.003066,0.009296,-0.001575,0.006196,
205,0.205,0.012938,-0.004332,-0.003862,0.016638,-0.006635,0.028467,0.002585,0.003259,
206,0.206,0.015298,-0.002644,-0.002179,0.013949,-0.003600,0.026152,0.004201,0.004211,
207,0.207,0.022077,-0.010266,-0.003711,0.008055,-0.004793,0.023993,0.006655,0.003471,
208,0.208,0.021132,-0.014327,-0.001525,0.008752,-0.003787,0.017933,0.007758,0.004257,
209,0.209,0.020233,-0.015524,-0.001193,-0.001881,-0.004818,0.023523,0.004818,0.003688,
210,0.210,0.025450,-0.003025,0.001338,-0.006413,-0.001789,0.018428,0.002913,0.000738,
211,0.211,0.030344,-0.004738,0.000998,-0.016008,-0.006879,0.022965,-0.002346,0.006071,
212,0.212,0.024651,-0.009327,-0.004076,-0.014792,-0.007564,0.018877,0.001352,0.006829,
213,0.213,0.019537,-0.007997,-0.003404,0.002321,-0.004529,0.004985,-0.003545,0.002662,
214,0.214,0.024601,-0.001758,0.000827,-0.000005,0.000718,0.006818,-0.004034,0.005588,
215,0.215,0.025306,-0.000758,-0.000856,-0.011127,-0.002831,0.005128,-0.006873,0.007151,
216,0.216,0.023852,0.002269,0.004901,-0.000952,0.001402,-0.002452,-0.006323,0.014133,
217,0.217,0.022621,-0.006206,0.005575,-0.002809,-0.001470,-0.023204,-0.009293,0.015177,
218,0.218,0.022614,0.001562,0.002014,-0.007887,0.004291,-0.050221,-0.010398,0.017899,
219,0.219,0.019115,-0.001486,0.000330,-0.009410,0.004982,-0.046606,-0.006782,0.020440,
220,0.220,0.011793,-0.000651,-0.001354,-0.010762,0.004312,-0.023518,-0.006370,0.021096,
221,0.221,0.011280,0.000189,-0.006075,-0.009565,0.000089,0.003643,-0.003422,0.019021,
222,0.222,0.017039,0.000844,-0.001837,-0.008515,0.004160,0.021839,-0.008401,0.009491,
223,0.223,0.013035,0.007248,-0.005887,-0.001208,0.005694,0.018754,-0.004768,-0.003090,
224,0.224,0.011104,0.004690,-0.001125,0.003376,0.001477,0.016071,-0.010404,-0.014991,
225,0.225,0.009541,0.000940,-0.004162,0.004238,0.004362,0.008127,-0.008103,-0.031958,
226,0.226,0.009520,0.007345,-0.000087,0.002051,0.004879,0.010619,-0.005974,-0.034195,
227,0.227,0.009699,0.013240,-0.000583,0.008477,0.001857,0.008508,-0.001664,-0.032198,
228,0.228,0.007547,0.006279,-0.001754,0.002531,0.003062,0.002463,-0.001078,-0.034093,
229,0.229,0.003568,0.001703,0.002142,0.006209,-0.002657,-0.010534,0.002548,-0.018914,
230,0.230,0.004838,-0.000852,-0.003599,0.005487,-0.003477,-0.002040,0.002281,-0.012869,
231,0.231,0.001569,-0.000221,0.003351,0.008481,0.001793,-0.009595,0.002694,-0.007341,
232,0.232,0.003884,-0.006700,-0.001209,0.011297,0.005367,-0.002624,0.001758,0.001059,
233,0.233,-0.002224,-0.000822,-0.000371,0.013786,-0.000361,0.001110,0.004190,-0.000518,
234,0.234,-0.000377,-0.001543,0.003348,0.015925,0.003380,0.008882,0.005257,-0.001961,
235,0.235,-0.000398,0.001964,0.001316,0.009446,0.005437,0.009896,0.007178,-0.003256,
236,0.236,-0.005472,-0.004989,-0.001734,0.010275,0.003781,0.010749,0.006570,-0.004393,
237,0.237,-0.002432,0.001453,-0.001230,0.007706,-0.000244,0.003008,0.010339,-0.003512,
238,0.238,-0.006492,0.002322,0.001294,0.008370,0.002320,-0.004206,0.012910,-0.006359,
239,0.239,-0.003969,0.004557,0.000952,0.006319,-0.002737,-0.016314,0.014129,-0.005646,
240,0.240,-0.009601,-0.001818,0.002130,-0.003191,-0.000688,-0.028122,0.016247,-0.005097,
241,0.241,-0.013047,-0.000936,-0.002100,-0.010140,-0.002349,-0.023558,0.012101,-0.003194,
242,0.242,-0.011606,-0.000245,0.000780,-0.008967,-0.000620,-0.011002,0.013881,-0.002801,
243,0.243,-0.012898,0.000407,0.004331,-0.005796,0.000933,0.000902,0.012443,-0.004592,
244,0.244,-0.009144,0.009851,0.005513,-0.013120,0.004010,0.008571,0.012185,0.001062,
245,0.245,-0.013698,0.008464,0.000772,-0.014024,0.000157,0.009959,0.013454,0.001644,
246,0.246,-0.019463,-0.005441,0.004983,-0.018315,0.000698,0.011143,0.008452,-0.001998,
247,0.247,-0.023056,-0.007360,-0.001466,-0.023642,0.001064,0.003330,0.002093,-0.000404,
248,0.248,-0.021781,0.001039,0.002754,-0.028616,0.003125,0.008559,0.006384,-0.003370,
249,0.249,-0.017666,-0.006602,0.003419,-0.019217,0.002143,0.000099,0.007120,-0.000928,
250,0.250,-0.022886,0.000336,0.005447,0.001529,0.000478,-0.000937,0.007851,-0.005247,
251,0.251,-0.021722,-0.000811,0.005949,0.010273,-0.001863,-0.001984,0.003667,-0.000080,
252,0.252,-0.021955,-0.001807,-0.000488,0.007521,0.000699,-0.002881,0.000831,-0.002189,
253,0.253,-0.023239,0.001244,-0.003049,0.005093,0.003091,-0.012401,-0.003866,0.000779,
254,0.254,-0.021192,-0.003323,-0.002390,0.002839,-0.001965,-0.008701,-0.002141,-0.002162,
255,0.255,-0.022389,-0.000792,-0.001732,0.004813,-0.002628,-0.003130,-0.001613,0.000314,
256,0.256,-0.022455,-0.004514,-0.001239,0.010315,-0.004309,0.002134,-0.003117,-0.000939,
257,0.257,-0.016659,0.000400,-0.004129,0.001774,0.000949,0.006695,-0.004279,-0.000669,
258,0.258,-0.018670,0.000912,-0.004642,-0.005921,0.000291,0.016122,-0.010687,0.005020,
259,0.259,-0.014981,0.002614,-0.003464,-0.012935,-0.001384,0.014870,-0.009826,0.005807,
260,0.260,-0.013208,0.002111,-0.005494,-0.004216,-0.000859,0.011568,-0.010673,0.009484,
261,0.261,-0.012663,0.003311,-0.002959,-0.003260,0.001691,0.008407,-0.017614,0.011468,
262,0.262,-0.013174,0.002987,-0.005328,-0.012788,-0.004390,0.012843,-0.016775,0.014477,
263,0.263,-0.012894,0.004008,-0.005677,-0.016540,-0.003531,-0.000159,-0.014253,0.012747,
264,0.264,-0.009115,0.005696,-0.001455,-0.006227,-0.002835,-0.017069,-0.016476,0.006964,
265,0.265,-0.012818,0.004013,0.004291,0.008988,-0.004838,-0.028398,-0.020063,0.010654,
266,0.266,-0.014196,0.003360,0.006479,0.010998,-0.006515,-0.022477,-0.013156,0.014179,
267,0.267,-0.016465,-0.000495,-0.001305,0.005390,-0.008190,-0.017060,-0.012338,0.013647,
268,0.268,-0.013201,-0.002160,-0.002322,0.000288,-0.003435,-0.012151,-0.014913,0.022431,
269,0.269,-0.013865,-0.008897,-0.005026,-0.001260,0.000809,-0.007760,-0.014284,0.031205,
270,0.270,-0.014570,-0.002443,-0.000802,-0.002634,-0.002060,-0.006557,-0.009422,0.027974,
271,0.271,-0.009222,-0.004958,0.001383,0.006140,-0.000546,-0.025611,-0.006423,0.016449,
272,0.272,-0.010501,-0.007138,-0.006411,0.011707,-0.001739,-0.066800,-0.008161,0.008810,
273,0.273,-0.007248,-0.003582,0.003057,0.010671,0.001132,-0.049442,-0.003468,-0.003744,
274,0.274,-0.002839,-0.000521,-0.000673,0.007962,0.001466,-0.012290,-0.004034,-0.012250,
275,0.275,-0.006407,0.004738,0.002534,0.012199,-0.003784,0.011852,-0.001228,-0.016864,
276,0.276,-0.008644,0.002720,-0.000509,0.020653,-0.001589,0.033819,0.000238,-0.015558,
277,0.277,-0.006676,-0.001491,0.002201,0.023858,-0.008028,0.037684,-0.002005,-0.006794,
278,0.278,-0.002185,0.007324,0.001359,0.018601,-0.002113,0.026831,-0.000869,-0.007811,
279,0.279,0.002112,0.021192,-0.003879,0.017728,0.001595,0.003774,-0.001262,-0.002553,
280,0.280,0.003178,0.019325,0.002557,0.016871,0.002255,0.018594,-0.000985,-0.001672,
281,0.281,0.000859,0.010855,0.008488,0.005365,0.003919,0.026651,0.003346,-0.009413,
282,0.282,-0.001307,0.009320,0.004785,0.007072,0.005587,0.038939,0.008510,0.006377,
283,0.283,0.004995,0.005237,0.005477,-0.000503,0.000834,0.027759,0.002011,0.008636,
284,0.284,0.005366,-0.013724,0.004986,-0.021245,-0.004942,0.017620,-0.000596,0.006664,
285,0.285,0.002019,-0.027442,0.002132,-0.012374,-0.004284,-0.006552,0.003048,0.008597,
286,0.286,0.007297,-0.025077,0.008913,-0.020406,0.002126,-0.016346,0.004997,0.010379,
287,0.287,0.002946,-0.031690,-0.001393,-0.013015,0.004656,-0.019199,0.004402,-0.000177,
288,0.288,0.005889,-0.033737,-0.002728,-0.001716,0.005325,-0.000052,0.004826,0.001288,
289,0.289,0.006968,-0.017001,-0.006432,-0.020030,-0.001123,0.012354,0.008291,0.000214,
290,0.290,0.005876,0.003293,-0.007432,-0.022282,-0.003676,-0.007893,0.001264,-0.002893,
291,0.291,0.007836,0.022393,-0.002175,-0.001888,0.001557,-0.015976,0.004212,-0.008030,
292,0.292,0.010325,0.015107,0.000548,0.000905,0.002212,-0.003602,0.004953,-0.007079,
293,0.293,0.008093,0.017803,-0.001637,0.004379,-0.000174,0.013660,0.004344,-0.007468,
294,0.294,0.007922,0.015590,0.000914,0.002102,0.001499,0.028978,0.008472,-0.009903,
295,0.295,0.007780,0.034012,0.001601,0.008775,0.004360,0.034771,0.006174,-0.006073,
296,0.296,0.011880,0.026728,0.000928,0.006810,0.001810,0.010501,0.008097,-0.007994,
297,0.297,0.008400,-0.002562,0.002620,0.012463,-0.001244,-0.012361,0.011034,-0.004851,
298,0.298,0.006303,-0.014435,-0.001440,0.010848,0.003482,-0.009374,0.008046,-0.005265,
299,0.299,0.009483,-0.025279,0.001103,0.009401,0.000425,-0.001203,0.008459,-0.009911,
300,0.300,0.016093,-0.015491,-0.001091,0.002562,0.003287,0.001191,0.009543,-0.010330,
301,0.301,0.010559,-0.012632,0.004498,0.006401,0.000729,-0.000940,0.005558,-0.009740,
302,0.302,0.014873,-0.004525,0.002303,0.003302,0.002910,-0.002882,0.003945,-0.011183,
303,0.303,0.010427,-0.002162,0.002980,0.004433,0.003229,-0.000943,0.006897,-0.006023,
304,0.304,0.015493,-0.004367,-0.001252,0.016718,0.003557,-0.015964,0.005626,-0.001035,
305,0.305,0.024668,-0.006408,0.000445,0.011742,0.001849,-0.005682,-0.000207,0.000729,
306,0.306,0.013244,-0.004561,-0.005303,0.004222,-0.001215,0.011063,-0.001124,-0.000888,
307,0.307,0.014717,-0.006275,-0.001578,0.000249,0.000631,0.013254,-0.001865,-0.001328,
308,0.308,0.018769,0.001318,-0.005129,-0.005939,-0.001075,0.019317,0.002982,-0.007349,
309,0.309,0.017614,0.002654,-0.000892,-0.016195,0.003995,0.024851,-0.000112,-0.004748,
310,0.310,0.014475,0.003816,-0.002574,-0.017488,0.001951,0.026493,-0.004217,-0.004014,
311,0.311,0.015595,0.007005,0.002169,-0.023684,-0.001105,0.021909,0.000478,0.000945,
312,0.312,0.016578,0.014262,0.000485,-0.022612,-0.002807,0.017845,-0.000065,-0.003246,
313,0.313,0.014211,0.007831,0.002173,-0.015297,-0.005361,0.014153,0.003969,0.002037,
314,0.314,0.013738,-0.001636,0.004710,-0.008829,0.000713,0.010970,-0.003830,0.002734,
315,0.315,0.013300,-0.007884,0.000488,0.004069,-0.000148,0.001578,-0.004857,0.005794,
316,0.316,0.016603,-0.004663,-0.000011,0.005972,-0.003893,-0.007089,-0.001817,-0.000627,
317,0.317,0.014009,-0.001607,-0.004737,0.004323,0.000989,-0.007955,0.002763,0.008834,
318,0.318,0.012799,-0.000748,-0.000501,0.002839,0.004018,-0.013013,0.000246,0.005073,
319,0.319,0.010087,0.001799,0.004759,0.006923,0.009254,-0.017363,-0.000400,0.008227,
320,0.320,0.007566,0.004012,0.001219,0.005760,0.004338,-0.014629,-0.001037,0.009177,
321,0.321,0.013699,0.011812,-0.000453,0.011356,0.001278,-0.013771,-0.006736,0.009949,
322,0.322,0.009869,0.004554,0.000070,0.004105,-0.000423,-0.017140,0.003300,0.012409,
323,0.323,0.008082,0.001870,0.002611,0.001418,-0.002974,-0.026378,0.004713,0.008610,
324,0.324,0.006481,-0.000649,-0.004318,0.009223,-0.004167,-0.041221,-0.004019,0.006503,
325,0.325,0.007419,-0.001314,-0.001271,0.010254,-0.000282,-0.030727,-0.011731,0.004757,
326,0.326,0.003790,-0.000648,-0.002114,0.014835,-0.007067,-0.024830,-0.006417,-0.004082,
327,0.327,0.007782,0.006291,-0.002969,0.017384,-0.000650,-0.006017,-0.003632,-0.005310,
328,0.328,0.007049,0.003591,-0.000771,0.007431,-0.003205,0.001428,0.000675,-0.002136,
329,0.329,0.001078,0.004447,-0.005685,0.000525,0.003726,0.008131,0.001435,0.003065,
330,0.330,0.004245,0.003790,-0.005193,-0.008250,0.002874,0.006219,0.006420,-0.001535,
331,0.331,-0.004773,0.005825,-0.004693,-0.018576,-0.001361,-0.013949,-0.002981,0.004351,
332,0.332,-0.003147,0.002782,-0.004190,-0.031139,-0.000687,-0.021702,-0.004259,0.004996,
333,0.333,-0.003732,0.002274,-0.003864,-0.029515,-0.002721,-0.014143,-0.000457,-0.004331,
334,0.334,-0.000259,-0.004486,0.000014,-0.034149,-0.002227,-0.007400,0.000623,-0.013151,
335,0.335,-0.008303,0.000053,-0.000507,-0.043880,-0.009856,-0.005296,0.001706,-0.016397,
336,0.336,-0.013493,0.004243,-0.002719,-0.045144,-0.010883,-0.010854,-0.000938,-0.017443,
337,0.337,-0.005829,-0.001030,0.000148,-0.028133,-0.000578,-0.022613,-0.000027,-0.012919,
338,0.338,-0.013914,-0.004592,0.001144,-0.015841,-0.004644,-0.014954,0.000708,-0.007052,
339,0.339,-0.010354,-0.001536,0.003493,-0.000302,-0.005844,0.000222,0.002796,-0.003389,
340,0.340,-0.013070,-0.003193,-0.001595,0.005745,0.001923,0.018499,0.003361,0.000104,
341,0.341,-0.008199,-0.003646,0.001946,0.007540,0.000887,0.030580,-0.000649,-0.006903,
342,0.342,-0.013840,-0.000522,0.003626,0.012570,0.001716,0.023740,-0.002126,0.003344,
343,0.343,-0.014256,0.004287,0.005302,0.020140,0.000847,0.025520,-0.004279,0.001912,
344,0.344,-0.007597,-0.002563,0.004776,0.027030,-0.002894,0.034530,0.002194,0.000650,
345,0.345,-0.013306,-0.001653,0.007808,0.020716,-0.003589,0.025828,-0.000471,0.003783,
346,0.346,-0.013799,0.002604,0.003048,0.015074,-0.001917,0.021039,0.000416,0.006763,
347,0.347,-0.012965,-0.001102,0.001338,0.016014,0.000936,0.011198,-0.006488,0.003998,
348,0.348,-0.018578,-0.000440,0.000815,0.009522,0.001418,0.007284,-0.000028,0.004798,
349,0.349,-0.020665,-0.000961,0.000288,0.006917,0.004430,-0.005339,-0.000850,0.004073,
350,0.350,-0.018545,-0.003840,0.000606,0.010562,0.001520,-0.003750,-0.003035,0.006062,
351,0.351,-0.017979,-0.007391,-0.000601,0.004068,0.004028,-0.005365,0.000519,-0.000896,
352,0.352,-0.018456,-0.004337,0.000397,0.006546,-0.001247,-0.001429,-0.002522,-0.000079,
353,0.353,-0.023196,-0.002305,-0.004194,0.005798,0.000903,-0.007783,0.000344,0.002431,
354,0.354,-0.022726,0.001246,-0.001164,0.007725,0.002893,-0.008889,-0.002199,-0.001311,
355,0.355,-0.022272,0.005488,-0.000682,0.009304,-0.000183,-0.009998,-0.001878,0.000714,
356,0.356,-0.019804,0.004990,-0.000187,0.009695,0.002668,-0.024026,-0.001567,-0.002339,
357,0.357,-0.019577,0.003485,-0.003251,0.007030,-0.003112,-0.030052,-0.005156,0.000523,
358,0.358,-0.021742,0.006545,-0.002925,0.002675,0.002107,-0.031838,-0.000952,0.001008,
359,0.359,-0.016138,0.006221,-0.001074,0.004256,0.001404,-0.023338,0.001899,0.001307,
360,0.360,-0.013771,0.000470,0.000619,0.005696,0.001890,-0.006482,0.000362,0.006007,
361,0.361,-0.013287,-0.008999,0.005697,0.007836,0.002371,-0.004347,0.001523,0.001738,
362,0.362,-0.012826,-0.012711,0.003670,0.003910,0.002856,0.005673,0.002695,0.005765,
363,0.363,-0.012552,-0.011684,0.000615,0.006443,0.003183,0.014783,0.003693,0.000994,
364,0.364,-0.007567,-0.008640,0.002283,0.008676,0.007065,0.023018,0.001993,0.002668,
365,0.365,-0.004293,-0.009491,-0.000267,0.002277,0.005538,0.018265,0.000283,0.011454,
366,0.366,-0.007626,-0.010332,-0.003323,-0.004125,0.000458,0.022091,0.000439,0.020246,
367,0.367,-0.001490,-0.005069,-0.008072,-0.001566,-0.001587,0.023035,-0.003464,0.028020,
368,0.368,-0.000958,-0.008592,-0.006397,-0.003744,0.002630,0.019584,-0.002964,0.022784,
369,0.369,-0.003479,-0.004326,-0.006921,-0.003053,0.003132,0.020336,-0.004496,0.014319,
370,0.370,0.001095,-0.001408,-0.002190,-0.007271,-0.000426,0.019224,-0.001455,0.001785,
371,0.371,0.002444,-0.003913,0.000847,-0.005568,0.000745,0.009578,-0.001797,-0.006689,
372,0.372,0.003793,0.003059,0.003718,-0.013345,-0.000451,0.000682,0.000049,-0.014321,
373,0.373,0.011221,0.010352,0.003203,-0.012341,-0.003005,-0.004967,-0.002323,-0.029563,
374,0.374,0.014088,0.024406,0.002869,-0.011334,0.002230,-0.006043,0.000712,-0.031614,
375,0.375,0.010696,0.010206,0.007606,-0.008621,-0.001497,-0.020035,-0.003531,-0.022322,
376,0.376,0.007647,0.004639,0.001861,-0.021457,-0.000808,-0.038273,-0.003040,-0.013865,
377,0.377,0.008143,0.006347,0.004080,-0.027010,-0.005030,-0.035694,-0.004567,-0.009302,
378,0.378,0.008485,0.004853,0.004774,-0.021915,-0.000960,-0.046574,-0.001526,-0.010660,
379,0.379,0.010186,0.008937,0.001749,-0.004989,-0.002473,-0.056367,0.003213,-0.006947,
380,0.380,0.014079,0.002705,0.001248,0.010585,-0.003640,-0.054143,0.002710,-0.010161,
381,0.381,0.015447,0.001706,0.001773,0.020738,-0.002437,-0.028575,0.001029,-0.004924,
382,0.382,0.013618,-0.005552,0.000605,0.011435,0.000115,0.018715,0.004585,-0.004074,
383,0.383,0.014507,0.008496,-0.000554,0.013131,-0.000880,0.037832,0.000357,0.000154,
384,0.384,0.018112,0.010525,-0.003064,0.011629,-0.002558,0.066789,0.004422,-0.000520,
385,0.385,0.012073,0.008645,-0.002693,0.004713,0.001680,0.061254,0.001898,0.007263,
386,0.386,0.009610,-0.003203,-0.002321,-0.001526,-0.002549,0.036888,0.003089,0.006256,
387,0.387,0.017142,-0.010815,-0.002450,-0.014015,0.002707,0.032334,0.001915,0.008974,
388,0.388,0.015919,-0.009462,-0.006299,-0.008897,-0.002167,0.020395,0.000912,0.008149,
389,0.389,0.016570,-0.008276,-0.005756,0.008082,0.000905,0.016787,-0.000085,0.013412,
390,0.390,0.017256,-0.013849,-0.000973,0.005950,0.000424,0.019952,0.002970,0.009876,
391,0.391,0.014919,-0.014847,0.003304,0.003999,0.004007,0.017060,0.000450,0.014110,
392,0.392,0.015478,-0.021251,0.003861,0.005956,-0.000192,0.008976,-0.001227,0.012407,
393,0.393,0.011145,-0.008365,0.000350,0.007743,-0.000666,0.011346,0.001157,0.012904,
394,0.394,0.011580,0.021263,0.007332,0.010534,0.001565,0.008133,-0.002378,0.004095,
395,0.395,0.013217,0.015698,0.002300,0.015175,0.001092,0.010340,0.001873,-0.000139,
396,0.396,0.005397,0.014027,0.000326,0.005594,0.000790,0.004270,0.001389,-0.004181,
397,0.397,0.004373,0.006438,0.000882,0.004459,0.007256,-0.001268,0.000912,-0.001614,
398,0.398,0.003379,-0.003185,0.002632,0.005512,0.004591,-0.006286,0.004488,-0.006651,
399,0.399,0.009847,0.003091,0.003192,-0.005976,0.002087,-0.007750,0.009595,-0.014378,
400,0.400,0.005684,0.002092,0.001049,-0.007487,0.001446,-0.006366,0.001844,-0.004864,
401,0.401,0.011030,0.011579,0.003973,-0.000546,0.012138,-0.002622,0.007121,-0.003643,
402,0.402,0.011833,0.012779,-0.001728,0.018385,0.004575,-0.001568,0.002591,-0.002597,
403,0.403,0.006230,0.000277,0.002546,0.026476,-0.002313,-0.004528,0.006851,-0.007815,
404,0.404,0.002676,0.001982,-0.004346,0.019178,-0.005993,-0.010805,0.007562,-0.003215,
405,0.405,0.004896,-0.002570,-0.001595,0.016963,-0.004931,-0.011459,0.009623,0.001035,
406,0.406,0.004606,-0.001199,-0.002391,0.010856,-0.003877,-0.011952,0.000181,0.006303,
407,0.407,-0.001572,0.002529,-0.004545,-0.002217,-0.002986,-0.021065,0.001573,0.012748,
408,0.408,-0.002150,0.010313,-0.006543,-0.020887,-0.002099,-0.017201,-0.007187,0.011920,
409,0.409,-0.004062,0.005067,-0.005996,-0.028219,0.000148,-0.022637,-0.003938,0.012606,
410,0.410,-0.001721,0.000497,-0.001894,-0.034876,-0.003367,-0.019458,-0.006935,0.009060,
411,0.411,-0.001897,-0.000354,0.005932,-0.041036,-0.009081,-0.012922,-0.004192,0.006015,
412,0.412,0.001326,0.001826,0.013759,-0.046697,-0.008361,-0.023912,-0.006695,-0.002779,
413,0.413,0.002199,-0.001738,0.006528,-0.028166,-0.004765,-0.025237,-0.004463,-0.006489,
414,0.414,-0.001656,-0.011209,0.001997,-0.010989,-0.003032,-0.007017,-0.006454,-0.007504,
415,0.415,-0.006516,-0.015248,0.002876,-0.004474,0.003429,-0.004535,-0.003379,-0.008518,
416,0.416,-0.001211,-0.016408,0.003585,-0.002535,0.004300,0.011067,-0.003856,-0.011218,
417,0.417,-0.003856,-0.017413,0.005640,0.002970,0.002123,0.025247,-0.003319,-0.003423,
418,0.418,-0.003950,-0.016406,0.001433,0.007974,0.004174,0.030788,-0.006341,0.003873,
419,0.419,-0.002009,-0.006093,0.000950,0.006391,0.004708,0.008869,-0.005134,0.003032,
420,0.420,-0.001934,-0.004741,-0.001571,0.013250,0.003049,0.000202,0.000646,0.003878,
421,0.421,-0.000330,0.001508,0.000658,0.016875,0.004612,0.003001,-0.000171,0.001663,
422,0.422,-0.005663,0.002523,-0.004051,0.011198,-0.000423,0.005407,0.003576,0.000965,
423,0.423,-0.006098,0.003544,-0.003513,0.005854,-0.001065,-0.014783,0.001569,-0.006001,
424,0.424,-0.006365,-0.001016,-0.003994,-0.002699,-0.007974,-0.028319,-0.000100,-0.012465,
425,0.425,-0.001049,-0.000159,-0.010736,-0.006011,-0.005244,-0.025808,-0.001775,-0.011654,
426,0.426,-0.004882,-0.003870,-0.006146,0.001165,-0.000988,-0.014580,0.000772,-0.007954,
427,0.427,-0.003997,-0.001831,-0.003590,0.001907,-0.000290,-0.016579,-0.000404,-0.000185,
428,0.428,0.002120,-0.003514,0.003365,-0.002437,0.000407,-0.018405,-0.000738,-0.001199,
429,0.429,0.001796,0.002913,-0.001180,0.001168,-0.001266,0.006891,-0.001752,0.001508,
430,0.430,-0.007177,0.003769,0.001369,0.000399,0.000445,0.010364,-0.002086,-0.001020,
431,0.431,-0.003146,0.005966,-0.002348,-0.002722,-0.001058,0.007107,0.000952,0.002711,
432,0.432,0.000357,0.009499,-0.001662,-0.004467,0.003203,0.009954,0.000601,-0.003704,
433,0.433,0.012123,0.016420,-0.001149,0.000208,0.007293,0.023623,-0.002628,-0.004539,
434,0.434,0.001711,0.007978,-0.001656,0.001851,0.008840,0.030852,0.002937,-0.005196,
435,0.435,0.000584,0.004776,-0.005216,0.003520,0.001928,0.028649,-0.000799,-0.003140,
436,0.436,-0.008018,0.001717,-0.002175,0.008228,-0.003293,0.022563,-0.000131,-0.002605,
437,0.437,-0.006837,-0.001040,0.002548,0.003940,-0.000559,0.013263,-0.003182,0.005026,
438,0.438,-0.011929,-0.003636,-0.003233,0.007924,0.000311,0.008207,0.004418,0.008087,
439,0.439,-0.010951,-0.007414,-0.005455,0.000071,0.002526,0.003648,-0.000847,0.016555,
440,0.440,-0.004916,-0.009496,-0.003449,-0.012491,0.001874,-0.000418,-0.000014,0.019776,
441,0.441,-0.002640,-0.009035,0.003468,-0.010847,0.000205,0.005787,-0.000876,0.020798,
442,0.442,-0.006145,-0.001466,0.000743,-0.003305,0.000732,0.011302,-0.001576,0.016227,
443,0.443,0.000806,-0.000499,0.001568,0.000687,-0.002808,-0.000290,0.000426,0.006745,
444,0.444,0.001637,-0.001361,-0.005393,-0.000544,-0.002462,0.001138,-0.001293,-0.007143,
445,0.445,-0.002634,-0.000504,-0.002718,-0.001591,-0.002113,-0.003012,-0.004198,-0.012756,
446,0.446,-0.006427,0.000177,-0.008669,0.001436,-0.001767,-0.001921,-0.001686,-0.017862,
447,0.447,-0.004513,0.002203,-0.003464,0.007851,0.003479,-0.001004,-0.001369,-0.025511,
448,0.448,-0.006349,0.002704,-0.004175,0.003609,0.002804,0.006183,-0.000211,-0.013029,
449,0.449,-0.011767,0.002175,0.001543,0.005792,0.000770,0.001529,-0.002097,-0.007994,
450,0.450,-0.009920,-0.000378,-0.000691,0.010660,-0.007535,-0.011404,-0.001785,-0.006524,
451,0.451,-0.008446,0.001798,0.004172,0.014854,-0.008566,-0.024504,0.001232,-0.002505,
452,0.452,-0.006986,0.004666,0.002448,0.006038,-0.001305,-0.043185,0.001552,-0.003731,
453,0.453,-0.005725,0.004311,0.004102,-0.002757,-0.004038,-0.055591,0.001864,0.001803,
454,0.454,-0.008224,0.003275,0.000519,-0.003744,0.000163,-0.035346,0.002175,0.000740,
455,0.455,-0.013272,0.008316,0.003538,0.012021,-0.002066,-0.010692,-0.002074,0.003410,
456,0.456,-0.010555,0.006251,0.009095,0.014229,-0.002772,0.012294,-0.001582,0.004231,
457,0.457,-0.010403,0.007902,0.003812,0.004073,-0.003304,0.027194,0.002454,0.007934,
458,0.458,-0.010268,0.004996,0.001732,0.002215,0.003096,0.029938,-0.004335,0.008596,
459,0.459,-0.010318,0.001431,0.001184,0.007296,0.002217,0.032362,0.002065,0.011628,
460,0.460,-0.011047,0.004476,0.001662,0.008826,-0.001535,0.016866,0.002886,0.005182,
461,0.461,-0.012483,-0.001111,0.000106,0.001911,-0.002243,0.006778,0.003536,-0.000763,
462,0.462,-0.009703,-0.008053,0.001273,0.000775,-0.000581,0.004966,-0.001393,0.002922,
463,0.463,-0.006251,-0.014498,0.003285,0.001861,0.005817,-0.000103,0.002808,0.002186,
464,0.464,-0.009218,-0.013637,0.000727,0.000960,0.006637,-0.004692,-0.000089,0.001612,
465,0.465,-0.006615,-0.002113,0.003067,-0.011094,0.004417,-0.003357,0.000393,-0.001323,
466,0.466,-0.009085,0.013129,0.001345,-0.012653,0.002366,-0.014706,0.001555,-0.007136,
467,0.467,-0.009185,0.007062,0.001484,-0.017102,0.000656,-0.028564,0.001870,-0.001938,
468,0.468,-0.005734,0.005230,0.005358,-0.004475,-0.003420,-0.037828,-0.003230,-0.006867,
469,0.469,-0.007701,0.010340,-0.002281,0.007483,-0.010204,-0.019195,-0.001221,-0.002645,
470,0.470,-0.005946,-0.000282,0.000742,0.006073,-0.007516,0.003141,0.000450,-0.003158,
471,0.471,-0.003514,-0.001577,-0.001989,0.004839,-0.003310,0.006020,0.002138,0.001576,
472,0.472,-0.002077,-0.000337,-0.001155,0.003781,0.000390,0.003322,-0.000405,0.001060,
473,0.473,-0.006396,0.000733,-0.001850,0.007111,0.005262,0.010604,0.003822,0.003915,
474,0.474,-0.005295,-0.010721,0.000162,0.008227,-0.000522,0.021753,0.004330,0.005393,
475,0.475,-0.000646,-0.012189,-0.002900,0.005633,0.003161,0.035939,0.003824,0.005678,
476,0.476,-0.000372,-0.010778,-0.003419,0.011689,0.001096,0.037779,0.004166,0.000035,
477,0.477,0.000936,-0.004463,-0.005965,0.017083,0.004107,0.032685,0.006203,0.000667,
478,0.478,0.005799,-0.009996,-0.001747,0.009437,0.001196,0.018791,0.003679,-0.002905,
479,0.479,0.010336,-0.004705,0.001131,0.004304,0.000661,0.009468,0.007591,-0.003418,
480,0.480,0.011669,0.005668,-0.002430,-0.007773,-0.006316,0.007794,0.007106,-0.001713,
481,0.481,0.013011,-0.001218,-0.002096,-0.009359,-0.003315,-0.002814,0.006791,-0.000157,
482,0.482,0.010156,-0.012498,-0.000071,-0.016869,-0.000648,-0.012395,0.002918,-0.004359,
483,0.483,0.010196,-0.007878,0.002462,-0.032006,-0.001533,-0.026217,0.000395,-0.008392,
484,0.484,0.011113,0.007390,0.000088,-0.025831,0.000632,-0.028036,-0.006528,-0.005824,
485,0.485,0.013388,0.021631,0.005165,-0.005281,-0.004311,-0.022936,-0.007536,-0.001575,
486,0.486,0.010776,0.019795,0.012941,0.002909,-0.000129,-0.024449,-0.004818,-0.001041,
487,0.487,0.006821,0.018113,0.003473,0.005364,0.001516,-0.014815,-0.000575,0.000506,
488,0.488,0.002382,0.013555,0.004665,-0.001135,-0.003266,0.001573,-0.007493,0.001720,
489,0.489,0.010993,0.006631,0.001457,0.001004,-0.002807,0.012709,-0.002904,-0.002983,
490,0.490,0.012014,0.005466,0.002480,0.014145,0.000020,0.022822,-0.000347,0.002798,
491,0.491,0.015107,0.006504,0.001643,0.012557,0.001499,0.024645,0.000354,0.002144,
492,0.492,0.014003,-0.004976,0.000818,-0.001212,0.002630,0.022921,0.001048,0.004189,
493,0.493,0.014780,-0.006462,0.006081,-0.006692,0.000556,0.012230,-0.000623,0.005891,
494,0.494,0.017274,-0.007759,-0.000327,-0.011670,0.001521,0.010828,-0.001110,0.001830,
495,0.495,0.023350,-0.004323,0.002900,-0.015632,0.002324,0.007908,-0.004638,0.003002,
496,0.496,0.022679,-0.007990,-0.001316,-0.010958,0.004648,-0.003474,-0.001063,0.003494,
497,0.497,0.023383,-0.002369,-0.001981,-0.003913,0.003588,-0.005049,-0.000702,0.003815,
498,0.498,0.015155,-0.001312,-0.001283,0.007528,0.006597,-0.009160,0.001354,0.007697,
499,0.499,0.018448,0.003293,0.001785,0.009141,0.004522,-0.005479,-0.002851,0.005172,
500,0.500,0.013311,-0.002593,-0.004614,0.005178,0.004818,-0.002307,-0.005704,0.006383,
501,0.501,0.016152,0.002675,-0.003745,0.004074,0.005782,-0.009626,-0.003139,0.009280,
502,0.502,0.020539,-0.002213,-0.005916,-0.008387,0.000662,-0.008827,-0.000073,0.005070,
503,0.503,0.010750,0.007272,-0.010793,-0.013429,-0.000054,-0.014787,-0.004788,-0.000154,
504,0.504,0.009622,0.005936,-0.006540,0.003500,-0.000603,-0.023251,-0.006457,-0.005034,
505,0.505,0.013583,0.009669,0.002276,0.010094,-0.002324,-0.035745,-0.004743,-0.006708,
506,0.506,0.008257,0.004097,0.008562,-0.000063,0.000188,-0.044176,-0.003205,-0.006178,
507,0.507,0.007516,-0.003181,0.000806,-0.005669,0.003208,-0.039572,-0.001997,-0.008693,
508,0.508,-0.000657,-0.013503,-0.004415,-0.000627,0.001158,-0.035481,0.000056,-0.005617,
509,0.509,0.012168,-0.009443,0.002033,-0.002167,-0.001395,-0.019048,0.001936,-0.004406,
510,0.510,0.010797,-0.005747,-0.003861,-0.011811,-0.004624,0.001287,0.002969,0.001369,
511,0.511,0.006562,0.004558,-0.000106,-0.015519,-0.002610,0.025999,0.006039,0.010855,
512,0.512,-0.005605,-0.016262,-0.003635,-0.018727,-0.002288,0.042434,0.003521,0.012056,
513,0.513,-0.003543,-0.019153,-0.000569,-0.007214,-0.004664,0.045354,0.006750,0.006490,
514,0.514,-0.010768,-0.011067,0.001139,-0.002634,-0.001622,0.037275,0.006426,0.007534,
515,0.515,-0.009028,-0.008741,0.001652,0.009924,-0.003483,0.020053,0.006784,-0.002763,
516,0.516,-0.009814,-0.006587,-0.005267,0.018431,-0.006702,0.004507,0.008493,-0.009676,
517,0.517,-0.006196,-0.004589,-0.000010,0.013918,-0.004683,0.010583,0.004109,-0.013385,
518,0.518,-0.004772,0.004673,-0.002709,0.012598,-0.004354,0.004962,0.005807,-0.012364,
519,0.519,-0.003498,-0.007209,-0.000165,0.008900,-0.002679,-0.000144,-0.001976,-0.011354,
520,0.520,-0.012556,0.000376,-0.005412,0.003338,-0.003036,-0.001675,-0.000966,-0.006803,
521,0.521,-0.008416,0.001717,-0.001854,0.004364,0.001191,-0.000321,0.000042,0.002661,
522,0.522,-0.006967,0.005434,0.001193,0.008932,-0.000488,0.003398,-0.002673,0.013989,
523,0.523,0.000719,-0.000136,0.001708,-0.003933,0.001212,0.004427,-0.003540,0.015502,
524,0.524,-0.005310,-0.001132,-0.003028,-0.016979,0.000722,0.007551,-0.004230,0.019567,
525,0.525,-0.012684,-0.000290,0.001203,-0.018702,0.001922,0.014084,-0.003568,0.010778,
526,0.526,-0.005002,0.005618,0.005263,-0.004867,0.003126,0.013353,-0.006637,-0.001723,
527,0.527,-0.001905,0.006251,0.001710,0.008117,-0.001937,0.009772,-0.009526,-0.010166,
528,0.528,-0.000686,0.004184,0.005940,0.013156,0.005858,-0.000787,-0.008010,-0.017761,
529,0.529,-0.002535,0.005844,0.004256,0.008534,0.006882,-0.020701,-0.005833,-0.027387,
530,0.530,-0.009962,0.002944,0.002741,0.007118,0.002325,-0.028822,0.000571,-0.016046,
531,0.531,-0.008601,0.003423,0.003927,0.013287,0.003175,-0.016508,0.003254,-0.014512,
532,0.532,-0.010989,0.009477,0.005118,0.014207,0.000994,-0.005412,0.002381,-0.013149,
533,0.533,-0.008156,0.008573,0.000054,0.013075,0.001695,0.004645,0.009277,-0.001813,
534,0.534,-0.007206,0.007854,0.003612,0.015654,0.003417,0.006387,0.002801,-0.003330,
535,0.535,-0.004925,0.012730,-0.000619,0.002683,-0.000618,0.007958,0.001907,0.000738,
536,0.536,-0.004183,0.008475,0.001070,-0.010433,0.000927,0.006314,-0.001866,0.001943,
537,0.537,-0.006852,0.004384,-0.000447,-0.015601,0.003158,0.004847,0.000118,0.000944,
538,0.538,-0.004135,-0.003442,-0.001643,-0.023312,0.003529,0.005935,-0.001614,0.006201,
539,0.539,-0.010920,-0.004510,0.000380,-0.019349,0.000018,0.002660,-0.003353,0.008921,
540,0.540,-0.013816,-0.003555,-0.003178,-0.013170,0.004283,0.001590,0.001337,0.009771,
541,0.541,-0.010988,-0.006343,-0.002851,-0.007650,-0.000920,0.004252,-0.000407,0.006066,
542,0.542,-0.006670,-0.017591,-0.002521,-0.002475,0.001148,0.005043,0.000056,0.006757,
543,0.543,-0.008792,-0.013118,-0.000665,-0.005272,-0.001862,0.002787,-0.002535,0.005080,
544,0.544,-0.008044,-0.011847,0.001713,-0.011274,-0.000133,0.002081,-0.002256,0.006777,
545,0.545,-0.007502,-0.000593,0.000026,-0.012042,0.001431,0.006304,-0.000279,0.007291,
546,0.546,-0.010366,-0.002172,-0.001323,-0.007233,-0.000730,0.004598,-0.001347,0.001210,
547,0.547,-0.005651,-0.000879,-0.002514,-0.001576,0.004046,0.000997,-0.000378,-0.001320,
548,0.548,-0.009929,0.000256,-0.001840,-0.006914,0.001037,-0.001260,-0.000096,-0.005041,
549,0.549,-0.008318,0.003410,0.000527,0.003662,0.002764,-0.005222,-0.002688,0.001386,
550,0.550,-0.005884,0.006405,-0.000485,0.014240,0.000256,-0.006815,0.002508,0.005617,
551,0.551,-0.011085,0.009059,-0.002350,0.018207,0.002484,-0.013823,0.001770,0.003411,
552,0.552,-0.014772,0.001242,0.001535,0.019301,0.002172,-0.029638,-0.000314,0.002732,
553,0.553,-0.009167,0.002215,0.001013,0.022417,-0.002038,-0.023120,-0.000874,0.005762,
554,0.554,-0.007135,0.003035,-0.002548,0.025353,-0.004895,-0.004762,0.000768,0.002868,
555,0.555,-0.002412,0.007236,0.000493,0.026105,-0.003353,0.002435,-0.005037,0.001309,
556,0.556,0.003150,0.003495,-0.001532,0.016546,-0.004519,0.008967,-0.001366,-0.003796,
557,0.557,0.000743,-0.002964,-0.001863,0.000054,-0.002471,0.006888,-0.003437,-0.001797,
558,0.558,0.002557,0.009861,-0.005752,-0.011187,-0.002789,-0.006166,0.000753,-0.000129,
559,0.559,0.004023,0.000527,-0.008292,-0.021409,-0.002430,-0.004458,-0.004517,0.001560,
560,0.560,0.000922,-0.004561,-0.002203,-0.019634,-0.001402,-0.018226,-0.000979,-0.005185,
561,0.561,-0.001851,-0.006100,0.000326,-0.021414,-0.003922,-0.027410,-0.001495,-0.002442,
562,0.562,-0.003274,0.003532,0.004045,-0.019992,-0.002212,-0.022217,0.000192,-0.010171,
563,0.563,0.002901,0.009760,0.007594,-0.035296,-0.003214,-0.014493,-0.005573,-0.004878,
564,0.564,0.001812,0.015326,0.000663,-0.041452,-0.001338,0.000823,-0.003381,-0.005693,
565,0.565,0.000710,0.010078,0.001508,-0.035907,0.002581,0.015124,-0.001360,-0.001447,
566,0.566,0.001142,0.007367,0.004047,-0.017334,0.000917,0.024519,0.002854,0.007013,
567,0.567,-0.005535,0.001445,0.004711,-0.000110,0.004489,0.016142,0.003352,0.010210,
568,0.568,0.003700,-0.007001,0.005382,0.006468,0.003337,0.014661,0.005868,0.017466,
569,0.569,0.002297,-0.021857,0.001158,0.008491,-0.003063,0.018719,0.005515,0.009001,
570,0.570,-0.005692,-0.023865,0.000654,0.010350,-0.007598,0.017501,0.005155,0.007997,
571,0.571,0.007800,-0.029428,-0.001878,0.012025,0.000222,0.000364,0.009375,0.007011,
572,0.572,0.009466,-0.027706,0.002343,0.016544,-0.002792,-0.036910,0.004121,-0.003265,
573,0.573,0.000824,-0.013808,0.001835,0.017846,-0.003608,-0.042218,0.002075,-0.004556,
574,0.574,-0.000853,-0.004478,0.001333,0.014064,-0.002731,-0.037552,0.005114,-0.010768,
575,0.575,0.005913,0.017553,0.000994,0.014996,0.002545,-0.050817,-0.003694,-0.011737,
576,0.576,0.009473,0.014729,-0.001037,0.007659,0.003255,-0.022963,-0.007421,-0.010688,
577,0.577,0.017121,0.006664,-0.002899,0.010338,0.003796,0.002346,0.000354,-0.009821,
578,0.578,0.005507,0.004347,-0.000528,0.007784,0.003312,0.025302,0.001367,-0.002024,
579,0.579,0.000837,0.010991,0.000493,0.016232,0.003850,0.040145,-0.001336,-0.003029,
580,0.580,0.007685,0.008995,-0.002547,0.015224,-0.002211,0.048208,-0.000476,-0.000305,
581,0.581,0.008782,0.014594,-0.003730,0.022511,-0.003030,0.050531,0.003268,0.002268,
582,0.582,0.009728,0.006137,0.001337,0.019832,-0.005206,0.052703,0.005323,-0.001412,
583,0.583,0.010687,0.004626,0.003352,0.013917,0.001241,0.046595,0.001121,-0.000689,
584,0.584,0.007947,0.006005,0.005025,0.008659,0.000409,0.044735,0.002842,-0.004874,
585,0.585,0.010462,0.002321,0.000949,0.010678,-0.001776,0.032899,0.001343,-0.000771,
586,0.586,0.011137,0.005580,0.004489,0.010149,-0.001088,0.022259,0.000179,0.001808,
587,0.587,0.013176,0.004596,0.000248,0.001326,-0.006832,0.004175,0.000541,0.001507,
588,0.588,0.004915,0.001922,-0.002633,-0.010021,-0.001581,0.001833,0.003100,0.004417,
589,0.589,0.008171,0.013118,0.000908,-0.014605,-0.002257,-0.004744,0.006337,-0.001296,
590,0.590,0.015487,0.011639,-0.002151,-0.013258,0.001972,-0.002670,0.000777,-0.000414,
591,0.591,0.005232,0.010332,-0.004191,-0.007002,0.003673,-0.008171,0.006053,0.000300,
592,0.592,-0.004327,0.001582,-0.009944,-0.014778,0.000122,-0.033481,0.006761,0.005236,
593,0.593,0.007102,0.000601,-0.009107,-0.007498,-0.001068,-0.044257,0.001046,0.001041,
594,0.594,0.008740,-0.010864,-0.005390,-0.002923,0.001800,-0.034404,-0.001113,-0.000625,
595,0.595,0.012928,-0.006261,0.001034,-0.000374,0.000780,-0.013587,-0.003100,0.000911,
596,0.596,0.014255,-0.007743,-0.002194,0.003703,0.001968,-0.005125,0.004051,0.003801,
597,0.597,0.013214,0.001941,-0.001362,0.000022,0.002971,0.002993,0.002407,0.006013,
598,0.598,0.014400,-0.001752,-0.002047,-0.001956,0.004658,0.005348,-0.003978,0.000439,
599,0.599,0.011536,-0.002737,-0.000023,0.002348,0.002779,0.007522,0.003850,0.005690,
600,0.600,0.005306,-0.007930,0.003013,-0.001598,0.003944,0.009521,0.000853,0.002141,
601,0.601,0.002966,-0.005161,0.007062,-0.003006,0.004082,0.007647,0.001751,0.006375,
602,0.602,-0.000553,-0.007643,0.001287,0.004024,0.003030,0.005961,-0.002422,0.004673,
603,0.603,0.000336,-0.005393,0.001954,0.003113,0.001639,0.001402,-0.000162,0.012439,
604,0.604,-0.001112,-0.007368,0.001264,0.000537,0.001765,-0.008211,0.000568,0.006837,
605,0.605,-0.000365,-0.001567,0.001761,-0.007097,0.002566,-0.014430,-0.003607,0.007821,
606,0.606,-0.001648,-0.003695,0.000049,-0.012212,0.001854,-0.015395,-0.003056,0.001371,
607,0.607,-0.004445,-0.005677,0.000527,-0.007524,-0.000036,-0.031070,-0.008758,-0.008119,
608,0.608,-0.002160,-0.008709,0.002698,0.002077,0.002302,-0.064686,-0.012430,-0.019469,
609,0.609,-0.000042,0.000109,0.003857,0.001029,-0.001954,-0.050245,-0.013057,-0.021000,
610,0.610,-0.005028,0.003841,0.001303,0.008916,-0.001476,-0.028157,-0.011319,-0.022350,
611,0.611,-0.002575,0.007053,0.000270,-0.002485,0.002549,-0.016219,-0.004843,-0.016105,
612,0.612,-0.007231,-0.000227,-0.002790,-0.000860,-0.000028,-0.005316,-0.005645,-0.005800,
613,0.613,-0.001242,0.000630,0.001423,-0.013274,-0.007006,-0.015068,-0.003398,0.003821,
614,0.614,-0.004708,0.004890,-0.000281,-0.004722,-0.006031,-0.023790,0.001555,0.007522,
615,0.615,0.000448,0.005604,0.004435,-0.003108,-0.001498,-0.021025,-0.001448,0.015292,
616,0.616,-0.001004,-0.000797,0.002726,-0.012652,-0.007456,0.011358,0.005030,0.014271,
617,0.617,-0.009566,-0.005013,-0.006084,-0.018799,-0.003774,0.033415,0.000850,0.007843,
618,0.618,-0.010532,-0.004333,-0.002385,-0.019685,-0.004493,0.045292,0.003094,-0.001623,
619,0.619,-0.007103,0.003432,-0.005616,-0.008043,-0.007578,0.048858,-0.003287,-0.007871,
620,0.620,-0.007923,-0.001836,0.005860,0.015088,-0.000012,0.045642,0.000986,-0.008881,
621,0.621,-0.006894,0.002709,0.001268,0.018417,-0.001073,0.042772,0.004750,-0.014117,
622,0.622,-0.014493,0.000157,-0.002833,0.015655,-0.001955,0.040065,-0.000116,-0.003798,
623,0.623,-0.000628,-0.008309,-0.001671,0.023891,-0.002845,0.032763,0.005675,-0.002458,
624,0.624,-0.002346,-0.011518,0.001519,0.011670,-0.003568,0.021566,0.003516,-0.001278,
625,0.625,-0.007302,-0.008466,0.002507,0.000610,-0.004290,0.019537,0.004225,-0.000283,
626,0.626,-0.011760,-0.003888,-0.003958,0.002705,-0.000103,0.002832,0.002558,0.000717,
627,0.627,-0.007613,-0.001352,-0.003150,0.000894,-0.001842,-0.008253,0.002076,0.003411,
628,0.628,-0.008715,0.007100,-0.003860,-0.010912,-0.001376,-0.006138,-0.000431,-0.002525,
629,0.629,-0.003081,0.014879,-0.003209,-0.012409,-0.003612,-0.011613,-0.000738,-0.003212,
630,0.630,-0.004058,0.022142,0.003702,-0.013706,-0.001618,-0.009820,0.000474,-0.002546,
631,0.631,-0.003201,0.013657,0.006386,0.002748,-0.000653,-0.005182,-0.000517,-0.002050,
632,0.632,-0.005736,0.001126,0.003818,0.013951,0.001669,-0.009204,0.001878,0.006731,
633,0.633,-0.002019,-0.007358,0.003114,0.011926,0.001284,-0.010354,0.002244,0.005529,
634,0.634,-0.004066,-0.008909,-0.001815,0.010057,-0.000610,-0.015922,0.003617,0.006533,
635,0.635,-0.001064,-0.002012,-0.001325,0.008346,0.002736,-0.012881,0.000759,0.007527,
636,0.636,-0.005182,-0.005785,-0.006593,0.000717,0.002370,-0.017440,0.003317,0.006668,
637,0.637,-0.002720,-0.006844,-0.001697,0.004762,0.004383,-0.009666,0.002314,0.004105,
638,0.638,0.003284,-0.012127,0.001335,0.005892,0.001813,-0.023376,0.003336,0.003404,
639,0.639,-0.002742,-0.009470,-0.002755,0.011400,-0.003453,-0.040153,-0.000375,-0.000183,
640,0.640,-0.003551,-0.006969,-0.007511,0.010332,-0.001277,-0.019894,0.000140,0.000288,
641,0.641,0.001218,-0.001762,-0.000584,0.013010,0.003611,-0.006260,-0.002054,-0.003801,
642,0.642,-0.004696,0.001749,-0.001439,0.010458,0.001905,0.000935,-0.004084,-0.001276,
643,0.643,-0.002677,0.005921,-0.000603,0.005187,0.000195,0.021137,-0.003749,0.005645,
644,0.644,-0.003539,0.008737,0.004635,0.003139,-0.004567,0.023745,-0.003431,0.002598,
645,0.645,0.002015,0.006129,0.002599,-0.006356,0.003710,0.021290,-0.003115,-0.001979,
646,0.646,-0.005124,0.013003,-0.001631,-0.007737,0.000486,0.023439,0.001086,-0.001144,
647,0.647,-0.006180,0.009891,-0.002135,-0.021632,0.005717,0.025427,-0.000634,-0.001838,
648,0.648,-0.008940,-0.004201,0.001434,-0.034690,0.004866,0.023563,-0.002359,0.003048,
649,0.649,0.000815,-0.010352,0.001781,-0.022890,0.009093,0.008340,-0.000874,0.002516,
650,0.650,-0.000767,-0.004840,0.007366,-0.006013,0.011280,-0.005870,-0.003954,0.008941,
651,0.651,-0.002191,-0.006602,0.000435,-0.012658,0.007711,-0.011491,-0.006873,0.008089,
652,0.652,-0.012742,-0.008189,0.001292,-0.026911,0.007200,-0.013246,-0.001161,0.008773,
653,0.653,-0.003350,-0.004198,-0.002938,-0.032534,0.004325,-0.005706,-0.000349,0.010809,
654,0.654,0.002670,-0.015592,0.005525,-0.017351,-0.001420,-0.007130,0.003336,0.001337,
655,0.655,0.001412,-0.001785,0.008749,-0.015366,-0.005129,-0.008401,0.001285,-0.005605,
656,0.656,-0.004078,0.014904,0.005715,-0.024721,-0.003092,-0.002911,0.000755,-0.004422,
657,0.657,-0.003483,0.012653,0.001160,-0.026477,-0.004777,-0.018735,0.002428,-0.007642,
658,0.658,-0.002879,0.010573,-0.004752,-0.003521,-0.003079,-0.034393,0.000882,-0.012904,
659,0.659,-0.002449,0.012388,0.000505,0.006248,0.001667,-0.032463,0.002031,-0.004456,
660,0.660,-0.002002,0.010668,-0.000159,0.009082,0.002185,-0.015787,0.003187,-0.001246,
661,0.661,0.004704,0.003046,0.001544,0.011748,0.003894,0.004473,0.000617,-0.000221,
662,0.662,-0.005846,-0.009472,-0.000138,0.014061,0.001392,0.001760,-0.002624,0.002508,
663,0.663,-0.004723,-0.011190,-0.000639,0.016206,-0.001615,0.019061,0.002088,-0.003378,
664,0.664,-0.001226,-0.009703,-0.001808,0.018166,0.001293,0.012519,-0.002165,-0.004010,
665,0.665,-0.000430,-0.002789,-0.003820,0.019976,0.000986,0.014608,-0.000490,-0.003286,
666,0.666,0.002414,-0.001629,0.001948,0.014846,0.002711,0.020255,0.001018,-0.007461,
667,0.667,0.004912,0.006132,-0.002262,0.007172,-0.000296,0.025412,-0.001204,-0.006903,
668,0.668,0.010628,0.003079,0.001476,0.011190,-0.000592,0.027000,-0.001574,-0.008390,
669,0.669,0.006709,0.003923,-0.000533,0.012336,-0.002917,0.011815,-0.001944,-0.010558,
670,0.670,0.007204,-0.001998,0.007767,0.006725,-0.003216,0.001659,-0.000293,-0.004954,
671,0.671,0.011259,-0.001328,-0.002532,0.001444,-0.000112,-0.000246,-0.004723,-0.001210,
672,0.672,0.009399,0.000718,-0.001160,-0.010789,0.001971,0.004747,-0.006446,-0.006098,
673,0.673,0.014985,0.003779,0.000039,-0.002375,0.001010,-0.009208,-0.000734,0.003405,
674,0.674,0.014166,0.009026,0.005636,0.017558,0.002078,-0.033489,-0.001438,0.002086,
675,0.675,0.017576,0.008329,0.004637,0.014800,0.003833,-0.030371,-0.003506,0.003297,
676,0.676,0.011679,0.001379,0.000079,0.017119,-0.000344,-0.015580,-0.001846,0.006535,
677,0.677,0.012225,-0.005036,-0.002452,0.014901,-0.003336,-0.018378,-0.002396,0.007570,
678,0.678,0.007204,0.000906,-0.001764,-0.007593,-0.003791,-0.011190,-0.001935,0.006738,
679,0.679,0.016556,0.006162,-0.003785,-0.004692,0.002020,0.004295,0.000215,0.007588,
680,0.680,0.009509,-0.004464,0.001986,-0.001934,-0.000121,0.014358,-0.001006,0.009789,
681,0.681,0.003144,-0.002913,0.002679,0.010459,0.000619,0.004971,-0.001385,0.007759,
682,0.682,-0.000180,-0.004247,0.000661,0.008293,-0.003543,0.003205,-0.000412,0.002009,
683,0.683,0.004970,0.002037,-0.002383,0.006281,-0.000609,0.004656,0.001236,0.005750,
684,0.684,0.004025,0.005282,-0.000682,0.000707,-0.006298,-0.016206,-0.003036,0.002210,
685,0.685,0.004770,0.000082,-0.006424,-0.004361,-0.009966,-0.013388,0.001146,0.010509,
686,0.686,0.000961,-0.004426,-0.005734,0.012545,-0.000598,-0.021561,0.002784,0.007312,
687,0.687,-0.001174,-0.000134,0.004926,0.014727,-0.001724,-0.004366,0.001204,0.012570,
688,0.688,0.008208,-0.003788,0.000370,-0.003718,-0.000653,0.002187,0.002334,0.008012,
689,0.689,0.004064,-0.005748,-0.006562,-0.016084,0.000415,0.020590,-0.001607,0.002100,
690,0.690,0.005149,-0.003965,-0.005376,-0.018287,-0.000383,0.022924,0.004094,-0.007867,
691,0.691,0.001831,0.000192,-0.004356,-0.012186,0.000509,0.020718,0.003365,-0.003790,
692,0.692,0.004771,0.001809,-0.003328,-0.010291,0.005802,0.018699,0.008221,-0.012572,
693,0.693,0.003799,0.003059,0.001246,-0.005205,-0.000586,0.020571,0.006492,-0.006978,
694,0.694,0.001136,0.001944,0.002089,-0.000667,-0.001395,0.008768,0.006969,-0.003912,
695,0.695,-0.002706,0.005568,-0.001640,-0.002073,0.002363,0.007282,0.008467,0.002525,
696,0.696,-0.002157,0.001399,-0.008073,-0.000935,-0.001147,-0.013490,0.007258,0.003370,
697,0.697,-0.007025,0.005184,-0.001318,0.002742,-0.001272,-0.014129,0.004537,0.003188,
698,0.698,-0.011393,0.010493,0.004608,0.001696,0.004522,-0.011216,0.004856,-0.008334,
699,0.699,-0.011024,0.006981,0.003943,0.002702,0.008280,0.013512,0.005852,-0.006652,
700,0.700,-0.018943,0.005325,0.001920,-0.001879,-0.000985,0.023344,0.001951,-0.011229,
701,0.701,-0.008772,0.007050,0.004968,-0.001032,-0.002139,0.020484,-0.004838,-0.009891,
702,0.702,-0.015854,0.003541,0.000903,-0.001710,-0.005327,0.012379,-0.002162,-0.001108,
703,0.703,-0.012288,0.005788,-0.001632,-0.002386,-0.006315,0.014774,-0.011656,-0.000101,
704,0.704,-0.009227,0.005500,-0.001971,-0.001895,0.000132,0.012623,-0.010493,-0.003143,
705,0.705,-0.006344,-0.000216,-0.003147,0.004529,0.000993,0.010657,-0.011523,-0.002301,
706,0.706,-0.011068,-0.001008,0.001085,-0.001392,0.001676,0.005163,-0.008495,0.001921,
707,0.707,-0.005314,-0.003135,-0.000605,-0.000727,0.002359,-0.003198,-0.000042,-0.005019,
708,0.708,-0.012419,-0.006639,-0.000096,-0.002760,0.000677,-0.004619,-0.003249,-0.004183,
709,0.709,-0.011758,-0.014886,0.000236,0.000298,-0.001005,-0.005862,0.002012,-0.008419,
710,0.710,-0.006024,-0.015850,0.000568,0.002004,-0.008784,-0.017084,0.002875,-0.006208,
711,0.711,-0.005528,-0.000064,0.001575,0.001505,-0.007761,-0.039977,0.000363,-0.004167,
712,0.712,-0.002149,0.006565,-0.000798,0.005749,-0.004705,-0.043077,0.001068,-0.003645,
713,0.713,-0.005380,0.000501,-0.003168,-0.001859,-0.000134,-0.040104,-0.000939,-0.003134,
714,0.714,-0.009628,0.002387,0.001054,0.003381,0.004098,-0.031846,-0.005138,-0.003667,
715,0.715,-0.002017,-0.002661,-0.001997,0.002530,-0.001145,-0.019346,0.003686,-0.003362,
716,0.716,-0.005398,-0.010242,-0.003700,-0.010330,0.000886,0.001103,0.004897,0.001327,
717,0.717,-0.004514,-0.008856,-0.002178,-0.008478,0.001391,0.014918,0.003912,-0.000425,
718,0.718,-0.007348,-0.002577,0.002899,-0.003432,0.004263,0.032263,0.004946,0.003573,
719,0.719,-0.006613,0.000665,0.003591,0.013443,-0.003518,0.038912,0.000403,0.004031,
720,0.720,-0.004525,-0.008790,0.000548,0.019991,0.002063,0.045063,0.001290,0.005188,
721,0.721,-0.003948,-0.007594,0.001065,0.005716,0.001041,0.028398,0.002012,0.004857,
722,0.722,-0.005729,0.000196,0.002586,-0.003664,0.001879,0.017302,-0.002860,0.002346,
723,0.723,-0.001749,0.015934,0.002935,0.001309,-0.004054,0.007183,0.001402,0.007625,
724,0.724,0.001736,0.013740,0.005824,-0.006379,0.004385,0.001606,-0.002614,0.008334,
725,0.725,-0.005256,-0.000456,0.003980,-0.021663,0.005382,-0.010262,0.002166,0.009039,
726,0.726,-0.006300,-0.002319,0.000782,-0.031882,0.004349,-0.014843,0.003899,0.012105,
727,0.727,0.002111,0.009506,0.001972,-0.041251,-0.000238,-0.013483,0.003434,0.011612,
728,0.728,0.003102,-0.001184,-0.003773,-0.046389,-0.001112,-0.004668,-0.004296,0.010101,
729,0.729,0.002062,0.002861,0.002161,-0.029550,-0.001819,-0.001401,-0.001027,0.009767,
730,0.730,0.008482,0.001667,0.004375,-0.004920,-0.003878,-0.000306,0.000041,0.005876,
731,0.731,-0.001002,-0.008694,0.007936,0.011428,0.003018,-0.001069,0.002793,-0.001901,
732,0.732,0.007793,-0.012790,-0.000347,0.014252,-0.001580,-0.006933,0.001996,-0.000888,
733,0.733,0.008826,-0.016554,-0.003559,0.011469,0.002619,-0.003175,0.004239,0.000124,
734,0.734,0.003628,-0.015564,-0.004573,0.018652,-0.002647,0.001737,0.006316,-0.006299,
735,0.735,0.014029,-0.014571,-0.000001,0.016358,-0.000647,0.007471,0.009412,-0.005441,
736,0.736,0.007210,-0.011905,-0.002543,0.010169,0.001016,0.005261,0.004223,-0.004753,
737,0.737,0.006159,-0.011111,0.004393,0.015669,-0.000691,-0.004057,0.002248,-0.005424,
738,0.738,0.011903,-0.016402,0.001699,0.007151,-0.000212,-0.005236,0.000602,-0.009648,
739,0.739,0.015143,-0.012891,-0.002520,-0.003555,0.000943,-0.004218,0.002340,-0.010159,
740,0.740,0.016189,-0.003449,-0.003187,-0.016104,0.000578,-0.003174,-0.000154,-0.008652,
741,0.741,0.024196,0.017326,0.000369,-0.000874,0.003095,0.003300,-0.007044,-0.003602,
742,0.742,0.021399,0.014426,0.006127,0.021646,0.002731,-0.004426,-0.008010,-0.005648,
743,0.743,0.015248,0.011696,0.009857,0.030464,-0.001004,-0.003354,-0.008810,0.000078,
744,0.744,0.019778,0.014025,0.003435,0.016777,-0.001373,-0.006016,-0.004537,0.003786,
745,0.745,0.014848,0.011760,0.004287,0.014426,-0.005292,-0.006847,-0.006691,0.010202,
746,0.746,0.017219,0.005572,-0.007217,-0.001119,-0.001768,-0.006166,-0.001741,0.011041,
747,0.747,0.013359,0.011058,-0.008922,-0.015313,-0.000602,-0.004135,-0.001200,0.005793,
748,0.748,0.015435,0.009280,-0.004352,0.001460,-0.002653,-0.005835,-0.004051,0.003763,
749,0.749,0.018375,0.013762,-0.000292,0.003679,0.002401,-0.006363,0.003754,0.007979,
750,0.750,0.011865,0.004049,0.000893,0.001662,-0.001167,-0.003836,0.009346,0.002726,
751,0.751,0.011307,0.000285,-0.004695,-0.003901,-0.002887,-0.006060,0.006300,-0.002186,
752,0.752,0.012626,0.001268,-0.003681,0.007954,-0.001231,-0.009989,0.007133,-0.009128,
753,0.753,0.019034,0.004297,-0.004532,0.009495,-0.002791,-0.014788,0.004591,-0.009969,
754,0.754,0.009537,-0.000278,-0.000320,0.008150,0.000225,-0.023141,0.003904,-0.009113,
755,0.755,0.011392,-0.004508,-0.002532,0.009331,0.002236,-0.017624,-0.002532,-0.006903,
756,0.756,0.010741,0.005470,-0.004573,0.003753,-0.002015,-0.020730,-0.008458,-0.003341,
757,0.757,0.019055,0.004106,-0.001542,0.004764,-0.000340,-0.023487,-0.012184,-0.005022,
758,0.758,0.016578,-0.004708,0.001316,0.005593,0.005388,-0.010689,-0.008631,-0.009076,
759,0.759,0.010718,-0.010309,0.002823,0.004738,0.000121,0.006035,-0.010314,-0.004337,
760,0.760,0.007075,-0.000884,0.000611,-0.003701,-0.001928,0.017246,-0.010811,-0.004838,
761,0.761,0.008348,-0.004673,-0.002283,-0.000469,-0.000264,0.023390,-0.005052,0.003956,
762,0.762,0.009638,-0.003696,0.001932,0.000582,-0.001980,0.002932,-0.004381,0.017830,
763,0.763,0.000773,-0.002715,0.000233,-0.003910,0.000537,-0.010784,-0.002359,0.019684,
764,0.764,0.000021,-0.001909,0.002765,-0.008048,-0.000661,-0.008420,0.000674,0.024742,
765,0.765,-0.018317,-0.002787,-0.000299,-0.011702,0.001358,0.016276,0.001161,0.026243,
766,0.766,-0.015005,0.007164,-0.004215,-0.005207,-0.001195,0.026074,0.006897,0.022169,
767,0.767,-0.016785,-0.002510,-0.008972,0.002631,-0.003567,0.040944,0.004688,0.010829,
768,0.768,-0.013989,0.001187,0.000475,0.003698,-0.003907,0.016223,-0.005984,-0.006084,
769,0.769,-0.015438,0.000158,-0.000901,0.006475,0.000323,-0.006816,-0.004476,-0.021648,
770,0.770,-0.012999,0.001158,0.000272,0.007449,0.002004,0.001966,0.002436,-0.027731,
771,0.771,-0.014132,0.001987,-0.005328,0.014530,0.004875,0.026650,0.003596,-0.029584,
772,0.772,-0.012060,0.001130,-0.004333,0.000606,0.006381,0.029825,0.000361,-0.017732,
773,0.773,-0.012888,-0.004109,-0.003512,-0.001321,0.004170,0.032638,0.001354,-0.013169,
774,0.774,-0.021161,0.002334,-0.002685,0.000649,0.002972,0.024430,0.002177,-0.006232,
775,0.775,-0.003566,0.004878,0.001019,-0.004329,0.000422,0.017052,0.003002,0.000017,
776,0.776,-0.010371,0.008587,0.000316,-0.008810,0.003631,0.005771,-0.002268,0.001013,
777,0.777,-0.003335,-0.002086,-0.002747,-0.010056,0.003971,-0.012781,-0.002961,0.004030,
778,0.778,-0.000900,-0.003617,-0.003275,-0.011129,0.004992,-0.020150,0.000058,0.004838,
779,0.779,0.005052,0.008872,0.004481,-0.009999,0.008883,-0.018033,0.004087,0.000556,
780,0.780,0.003701,0.003769,0.005474,-0.006818,0.001096,-0.007961,0.001521,0.002702,
781,0.781,-0.000546,0.005272,0.006471,0.007373,-0.002122,0.001272,0.004546,-0.000911,
782,0.782,-0.004331,-0.004389,0.003752,0.013621,-0.005170,0.016439,0.002494,-0.004015,
783,0.783,-0.015436,-0.005584,0.002886,0.011921,-0.002469,0.014374,-0.002606,-0.009295,
784,0.784,-0.022850,0.002203,0.005064,0.010376,-0.003320,0.008800,-0.003308,-0.002888,
785,0.785,-0.018638,0.005281,0.003013,0.009012,-0.005528,0.003733,-0.001645,-0.002054,
786,0.786,-0.022250,0.002596,-0.000041,-0.006058,0.002239,-0.000837,0.002380,0.001664,
787,0.787,-0.021163,-0.003308,-0.000558,-0.020118,0.003239,0.000487,0.000826,0.002336,
788,0.788,-0.011661,-0.010208,-0.004108,-0.029278,0.000521,-0.010905,-0.000387,0.006557,
789,0.789,-0.012870,-0.007467,0.001982,-0.040987,-0.003721,-0.024840,0.000762,0.007056,
790,0.790,-0.013962,-0.008294,0.001131,-0.033264,-0.000009,-0.034192,-0.002821,0.004504,
791,0.791,-0.015104,-0.007580,0.000447,-0.020656,-0.004924,-0.035891,0.000181,0.006693,
792,0.792,-0.016141,0.003113,0.003995,-0.005329,0.001995,-0.025233,-0.001898,0.003804,
793,0.793,-0.010457,0.017011,0.002296,0.000874,-0.000735,-0.012729,-0.003811,0.004813,
794,0.794,-0.014470,0.033783,0.003994,0.002832,0.001775,-0.007666,-0.003525,0.004461,
795,0.795,-0.016817,0.022644,0.007545,0.007991,-0.006707,-0.015286,0.000825,0.002074,
796,0.796,-0.012958,0.012508,0.000615,0.006551,-0.003523,-0.005642,0.002476,-0.000470,
797,0.797,-0.011683,0.010653,0.003657,0.010648,-0.000506,0.005689,0.001949,0.001214,
798,0.798,-0.010454,-0.004061,0.000947,0.016083,-0.002388,0.010407,0.008351,0.001027,
799,0.799,-0.018717,-0.022672,0.001802,0.009852,0.000302,0.017996,0.009518,-0.001367,
800,0.800,-0.008919,-0.025044,-0.000722,0.015451,0.004528,0.016613,0.010689,0.001151,
801,0.801,-0.008133,-0.031652,-0.001385,0.012413,0.003852,0.020312,0.004934,0.000108,
802,0.802,0.007680,-0.029626,0.003538,0.018836,-0.001057,0.014718,0.002381,-0.002968,
803,0.803,0.004869,-0.027774,0.000514,0.024764,-0.002740,0.009481,0.001684,-0.004862,
804,0.804,-0.005932,-0.022706,-0.002337,0.021035,0.000139,0.001042,-0.000365,-0.001681,
805,0.805,-0.001044,-0.012059,0.002425,0.020337,-0.003405,-0.009257,0.001304,-0.000535,
806,0.806,-0.013603,-0.005121,0.001949,0.026058,0.002697,-0.007871,0.001774,-0.001585,
807,0.807,-0.009765,-0.001405,0.000285,0.017572,0.000177,-0.026784,-0.006041,0.001581,
808,0.808,-0.014558,0.015692,-0.002208,0.000455,-0.002014,-0.062454,-0.005067,-0.002358,
809,0.809,-0.011595,0.028040,0.000864,0.002760,0.000036,-0.057695,-0.004090,0.005389,
810,0.810,-0.017934,0.016881,-0.001994,-0.008483,0.000559,-0.026880,0.002295,0.002157,
811,0.811,-0.009226,0.014859,-0.007730,-0.027002,0.001081,0.001050,0.001408,0.007402,
812,0.812,-0.006295,0.013001,-0.008553,-0.034349,0.000584,0.004635,0.000698,0.011985,
813,0.813,-0.012678,0.007939,0.002978,-0.009743,0.000265,0.014451,0.002699,0.011174,
814,0.814,-0.006220,0.003393,0.004698,-0.006629,-0.000050,0.029312,0.003174,0.004286,
815,0.815,-0.000594,0.002050,0.000155,-0.003869,-0.005107,0.037411,-0.003276,-0.000238,
816,0.816,-0.009186,0.000883,0.004230,0.004116,-0.005770,0.039780,-0.002459,-0.007984,
817,0.817,-0.004715,-0.000097,0.003065,-0.003302,-0.004070,0.041975,-0.003165,-0.002707,
818,0.818,-0.008183,0.002999,-0.004701,-0.028153,-0.000008,0.019496,-0.001161,-0.009104,
819,0.819,-0.001145,0.000365,-0.001634,-0.031519,-0.000516,0.010733,-0.001706,-0.008245,
820,0.820,-0.002883,-0.000413,-0.000766,-0.016772,0.006423,0.008043,-0.004622,-0.010433,
821,0.821,0.000987,-0.004077,0.003495,-0.008763,0.003390,0.010419,-0.006181,-0.002632,
822,0.822,-0.005606,-0.002001,-0.001727,-0.006485,0.000695,0.017011,-0.003176,-0.003612,
823,0.823,-0.006921,0.001088,-0.001027,0.000009,0.004924,0.019004,-0.006089,0.002868,
824,0.824,0.003146,0.003999,0.002032,0.001952,-0.000323,0.017082,-0.000373,0.005461,
825,0.825,0.007155,0.005556,-0.004375,-0.011161,-0.005232,0.011941,-0.006330,0.009243,
826,0.826,0.016293,0.006776,-0.001805,-0.009536,-0.009466,0.001216,-0.001125,0.011333,
827,0.827,0.019535,0.012398,-0.001111,-0.005035,-0.004220,-0.000216,-0.001834,0.014424,
828,0.828,0.015871,0.011753,0.000930,-0.001066,0.000689,-0.001498,-0.001356,0.010406,
829,0.829,0.010223,0.003992,-0.000751,0.005094,0.000185,-0.004800,-0.005441,0.008916,
830,0.830,0.012583,-0.001224,-0.002424,0.006009,0.003062,-0.012137,-0.002923,0.002006,
831,0.831,0.023444,-0.005762,-0.001902,0.000659,0.002551,-0.026218,-0.000752,-0.011675,
832,0.832,0.018642,-0.013522,-0.001551,0.003273,0.003730,-0.044684,-0.000431,-0.017232,
833,0.833,0.019820,-0.022979,-0.000361,-0.004596,0.003387,-0.032354,0.002099,-0.022277,
834,0.834,0.025950,-0.009093,-0.003909,-0.007738,0.007610,-0.016805,0.005294,-0.020717,
835,0.835,0.018083,0.000227,-0.003565,-0.010543,0.007094,0.001615,-0.001145,-0.013735,
836,0.836,0.019075,-0.008204,-0.004747,-0.006424,0.003531,0.013959,-0.003844,-0.007431,
837,0.837,0.029408,-0.006665,-0.004410,-0.005865,0.003196,0.016160,0.000404,-0.006373,
838,0.838,0.033527,0.008572,-0.000519,0.000431,0.002015,0.006048,-0.001775,0.000945,
839,0.839,0.034821,0.002493,0.001006,0.006219,0.001004,-0.018041,0.004686,0.001820,
840,0.840,0.047504,0.011808,0.003205,0.005411,0.006242,-0.014730,0.005557,0.007767,
841,0.841,0.039263,0.010123,0.007093,0.004625,0.008442,-0.005865,0.007786,0.002542,
842,0.842,0.038009,0.005569,-0.000685,0.011470,0.006405,-0.003128,0.007141,0.010335,
843,0.843,0.025787,0.001524,0.000327,0.002932,0.003361,-0.005489,0.007675,0.013373,
844,0.844,0.027774,0.005271,-0.002720,-0.002724,0.005049,-0.007695,0.001272,0.006929,
845,0.845,0.029689,0.004297,-0.001875,0.012941,0.004540,-0.001612,-0.008167,0.004366,
846,0.846,0.028764,0.005341,0.000656,0.010675,0.000305,0.011406,-0.001871,0.006517,
847,0.847,0.015360,0.006198,-0.003074,0.012640,-0.003752,0.013107,-0.007405,0.008472,
848,0.848,0.017738,0.005359,-0.001050,0.014446,-0.008489,0.014644,-0.004307,0.004158,
849,0.849,0.019980,0.001623,0.000630,0.012708,-0.011539,0.010605,-0.006957,0.005762,
850,0.850,0.016001,-0.004837,-0.003443,0.011127,-0.007484,0.001847,-0.000972,0.004156,
851,0.851,0.006987,-0.000644,-0.002947,0.004143,-0.012219,-0.010627,0.002813,0.002904,
852,0.852,0.016430,-0.000021,-0.003299,0.007816,-0.006459,-0.015662,-0.000677,0.003186,
853,0.853,0.020325,-0.000769,0.000583,0.008801,-0.007133,-0.014106,0.001074,0.008225,
854,0.854,0.017975,-0.010291,-0.004168,0.007767,-0.006459,-0.012729,0.007570,0.007519,
855,0.855,0.010219,0.002199,0.000047,-0.002584,-0.010687,-0.008989,0.001712,0.016959,
856,0.856,0.003158,-0.009664,-0.007581,-0.003973,-0.001888,0.001326,0.007024,0.012872,
857,0.857,0.006912,-0.005097,0.006103,0.012398,-0.005600,0.010976,0.007765,0.001508,
858,0.858,-0.006402,-0.009143,0.011664,0.014553,-0.004587,0.014689,0.010865,-0.006135,
859,0.859,-0.007708,-0.002854,0.009956,0.004354,-0.003564,0.020247,0.009234,-0.015818,
860,0.860,0.006022,0.000394,0.002325,-0.001278,0.001007,0.006539,0.006754,-0.017052,
861,0.861,0.008391,-0.004820,0.000955,0.007124,-0.004905,0.008431,0.004616,-0.020320,
862,0.862,0.010573,-0.007502,-0.000246,0.005537,-0.004229,0.016954,0.006700,-0.025607,
863,0.863,0.001609,0.001976,0.002958,0.009558,-0.000669,0.012461,0.000998,-0.019225,
864,0.864,0.001098,-0.001754,0.006010,0.015805,0.003582,0.008471,0.005284,-0.013363,
865,0.865,-0.013111,-0.007356,0.001443,0.019020,0.005290,0.009723,0.006019,-0.014104,
866,0.866,-0.010425,-0.021087,0.000592,0.022065,0.007836,-0.005099,0.001172,-0.017725,
867,0.867,-0.007944,-0.026699,0.002785,0.013627,0.008186,-0.031615,0.001746,-0.010858,
868,0.868,-0.009033,-0.018278,0.000746,0.001143,0.007017,-0.028035,0.004684,-0.011757,
869,0.869,-0.009989,-0.007659,-0.005019,-0.020822,0.001295,-0.011631,0.005267,-0.010969,
870,0.870,-0.010807,0.001941,-0.001307,-0.029583,0.002167,0.009156,0.006515,-0.013221,
871,0.871,-0.014032,0.003076,-0.000632,-0.026820,0.009133,0.022830,0.001841,-0.008377,
872,0.872,-0.026089,0.006247,0.005122,-0.034006,0.006443,0.030075,0.000198,-0.002686,
873,0.873,-0.027363,0.009246,-0.000128,-0.027297,0.003913,0.018889,0.000755,0.000967,
874,0.874,-0.028508,0.008339,-0.005040,-0.037326,0.003253,0.008713,0.002321,0.005807,
875,0.875,-0.024109,0.005740,0.003252,-0.031615,-0.000286,0.006824,-0.004572,0.014042,
876,0.876,-0.015012,0.003500,0.004280,-0.009492,-0.001977,0.008493,-0.005552,0.015005,
877,0.877,-0.020318,0.009891,0.003283,-0.000560,-0.001465,0.000860,-0.004665,0.018003,
878,0.878,-0.029557,0.009002,0.000590,0.002297,0.001087,-0.008790,-0.005482,0.015258,
879,0.879,-0.030577,0.003708,0.001443,0.009737,-0.001099,-0.012515,-0.000216,0.016060,
880,0.880,-0.047544,0.007225,0.000785,0.007701,-0.001413,-0.011505,-0.005111,0.007569,
881,0.881,-0.054750,0.004159,0.001470,0.005811,-0.001722,-0.006276,-0.010854,0.001942,
882,0.882,-0.052537,0.004649,-0.000217,0.007801,0.001520,-0.010870,-0.003906,-0.005390,
883,0.883,-0.046485,0.007155,-0.000718,0.006214,0.002730,-0.010069,-0.006603,-0.006309,
884,0.884,-0.044733,0.000205,-0.001218,0.010875,0.003762,-0.018556,-0.014379,-0.003848,
885,0.885,-0.033045,0.003255,-0.001551,0.006903,-0.001467,-0.019578,-0.015377,-0.001732,
886,0.886,-0.025619,0.002418,-0.003572,0.010707,-0.000782,-0.035294,-0.012664,-0.002473,
887,0.887,-0.018921,-0.000140,-0.006093,0.009770,-0.002806,-0.068941,-0.016886,0.006940,
888,0.888,-0.022926,0.002045,-0.000831,0.008845,0.001422,-0.054548,-0.006894,0.005535,
889,0.889,-0.024268,0.004064,-0.000130,0.006235,-0.000279,-0.023754,-0.008238,0.004317,
890,0.890,-0.025671,0.001002,-0.005014,0.005484,0.002237,0.012269,-0.004523,0.007505,
891,0.891,-0.012045,0.003867,0.000758,0.009290,0.001026,0.036461,0.001037,0.012740,
892,0.892,0.018111,0.002336,-0.001411,0.008694,0.002191,0.049681,0.002032,0.013592,
893,0.893,-0.022164,-0.004608,-0.002066,0.004549,0.001152,0.045848,-0.000710,0.014463,
894,0.894,-0.017483,-0.007649,0.002177,0.006333,-0.000559,0.035096,0.001795,0.021436,
895,0.895,-0.013335,-0.004926,-0.001866,0.002906,-0.002939,0.025347,-0.003481,0.029932,
896,0.896,-0.018367,-0.004059,-0.001352,-0.002098,0.001274,0.022511,-0.004194,0.028952,
897,0.897,-0.015149,0.001199,-0.000178,-0.004081,0.002940,0.014418,-0.001179,0.021704,
898,0.898,-0.019412,0.003236,0.000999,0.000155,0.003424,0.002093,-0.005278,0.011413,
899,0.899,-0.017081,0.008151,-0.001021,-0.003889,0.000689,-0.006007,-0.002947,-0.001930,
900,0.900,-0.007986,0.017627,0.000007,-0.004405,-0.005088,-0.003803,-0.004510,-0.011550,
901,0.901,-0.005858,0.030139,-0.000327,-0.011204,-0.002905,-0.005851,-0.001497,-0.025400,
902,0.902,-0.003912,0.014910,0.001362,-0.013972,-0.000886,-0.004039,-0.005422,-0.027237,
903,0.903,-0.002312,0.004753,-0.000485,-0.006235,-0.000391,-0.005792,-0.000733,-0.018742,
904,0.904,-0.000902,0.006612,0.003416,-0.003230,-0.003280,0.004801,-0.001295,-0.020219,
905,0.905,0.008452,-0.005242,0.003933,0.001303,-0.003795,-0.002178,0.002708,-0.016115,
906,0.906,0.005786,-0.012859,0.004455,0.000441,0.002283,0.001512,0.005184,-0.012351,
907,0.907,0.010050,-0.014232,-0.000606,-0.003297,-0.005502,-0.001732,0.003947,-0.006731,
908,0.908,0.026154,-0.013062,0.002964,0.003135,-0.000263,-0.000735,0.007778,0.002762,
909,0.909,0.036520,-0.020861,-0.000064,0.005689,-0.002974,0.000115,0.008231,0.001577,
910,0.910,0.045897,-0.017823,-0.001750,0.006362,0.002942,-0.005803,0.010363,-0.004020,
911,0.911,0.024686,-0.007507,-0.004287,-0.004331,-0.002312,-0.011074,0.011474,-0.000991,
912,0.912,0.015826,-0.003450,-0.006487,0.000194,-0.011620,-0.004665,0.005644,0.003558,
913,0.913,0.007837,0.000267,-0.000904,-0.001211,-0.005372,-0.000431,0.003030,0.001020,
914,0.914,0.013728,0.003488,-0.000229,0.005010,-0.002166,-0.001118,-0.000774,0.000356,
915,0.915,0.019147,0.002477,0.003329,-0.000618,-0.003184,0.005265,-0.004405,-0.003169,
916,0.916,0.016640,0.005175,0.002824,-0.010144,-0.002337,0.006031,-0.001434,-0.007345,
917,0.917,0.021104,0.006005,0.002316,-0.011388,-0.008261,0.006608,-0.007936,-0.005599,
918,0.918,0.025099,0.005312,0.001812,-0.008242,-0.004552,0.007163,-0.000230,-0.005034,
919,0.919,0.025923,0.007341,-0.002413,-0.005284,-0.002536,0.006548,-0.001319,0.001960,
920,0.920,0.026621,0.000424,-0.001911,-0.013845,0.003193,0.004771,0.007068,0.007281,
921,0.921,0.025168,0.003146,0.001629,-0.021726,0.006889,-0.000011,0.005988,0.010075,
922,0.922,0.023755,0.012631,0.001958,-0.016573,0.001960,0.000462,0.006940,0.011021,
923,0.923,0.026103,0.011461,-0.001938,-0.015811,0.000246,-0.002446,0.007720,0.002681,
924,0.924,0.023263,-0.003415,-0.009723,-0.018424,0.005467,-0.010266,0.006809,0.001789,
925,0.925,0.011512,-0.005442,-0.008724,-0.013256,0.001881,-0.015881,0.003021,-0.001141,
926,0.926,0.009629,0.000132,-0.003489,-0.013994,-0.001196,-0.021161,0.007851,-0.005598,
927,0.927,0.020164,0.001811,0.002926,-0.017080,0.002828,-0.018503,0.008287,-0.004659,
928,0.928,0.013142,-0.012068,-0.004873,-0.008315,-0.004986,-0.014329,0.009920,-0.011510,
929,0.929,0.014284,-0.021389,0.002387,0.008066,-0.006029,-0.007454,0.008344,-0.005011,
930,0.930,0.022087,-0.019728,0.005077,0.010246,-0.005046,-0.001082,0.003226,-0.000717,
931,0.931,0.016912,-0.009101,0.004215,0.024441,-0.002361,0.006680,0.001148,0.010836,
932,0.932,0.027356,-0.018777,0.003525,0.022569,0.001844,0.009734,0.001614,0.012565,
933,0.933,0.023485,-0.015089,0.002824,0.020868,0.004023,0.007036,-0.007210,0.020205,
934,0.934,0.004796,-0.007346,0.001118,0.019343,0.006038,0.002798,-0.006058,0.013305,
935,0.935,0.007820,0.008338,-0.002957,0.020698,0.002980,0.006483,-0.009298,0.014527,
936,0.936,0.010572,0.006096,-0.002460,0.009371,0.005834,0.005768,-0.010327,0.008997,
937,0.937,0.008816,0.012146,-0.002807,0.004806,0.008355,0.001495,-0.011178,0.001777,
938,0.938,0.015394,0.010252,-0.000786,0.006154,0.013409,-0.001414,0.001684,-0.002723,
939,0.939,0.006618,0.008519,0.001747,0.007324,0.015423,-0.003957,0.007275,-0.008581,
940,0.940,0.002127,0.003923,-0.003498,0.004093,0.007121,-0.010870,0.002214,-0.018505,
941,0.941,0.010349,-0.000180,-0.002831,0.001032,0.006096,-0.026558,0.006794,-0.022512,
942,0.942,0.004071,-0.009016,0.003590,-0.013028,-0.001196,-0.033105,-0.000128,-0.023641,
943,0.943,-0.001472,-0.012272,-0.000653,-0.035548,-0.005777,-0.018842,-0.006376,-0.022579,
944,0.944,0.007015,-0.013342,0.006278,0.009424,-0.003255,0.001671,-0.009578,-0.017294,
945,0.945,0.010801,-0.004939,0.016589,0.015825,0.000456,0.015398,-0.008549,-0.005087,
946,0.946,0.008862,0.000593,0.009642,0.033225,-0.003114,0.013044,-0.005833,-0.003377,
947,0.947,-0.003196,-0.000462,-0.001697,0.017293,-0.001431,0.010843,-0.004963,0.001183,
948,0.948,-0.011695,0.002218,-0.003223,0.022006,-0.003130,0.012874,-0.004254,0.002498,
949,0.949,-0.002462,0.004735,0.000834,0.026393,-0.004661,0.018477,-0.006251,0.003615,
950,0.950,-0.006238,0.006925,0.004542,0.030275,-0.007714,0.026996,-0.003172,0.002508,
951,0.951,-0.001368,0.008951,-0.005783,0.012173,-0.001288,0.028597,0.002106,-0.002827,
952,0.952,0.008261,0.004730,-0.001725,0.002364,-0.000439,0.027303,0.005697,-0.003755,
953,0.953,0.005878,0.006414,-0.002912,-0.006415,-0.002972,0.010954,0.007422,-0.001290,
954,0.954,0.005688,0.008928,-0.003931,-0.025491,-0.000763,0.004421,0.003396,0.005607,
955,0.955,0.005687,0.011088,-0.006983,-0.023091,-0.000081,0.006574,-0.001304,0.004737,
956,0.956,0.010761,0.009856,-0.000555,-0.025259,-0.001764,0.001130,0.001774,0.010659,
957,0.957,0.000072,0.008793,0.000283,-0.031325,-0.001237,-0.013981,-0.002251,0.019124,
958,0.958,-0.007578,0.004841,0.003990,-0.022005,0.000295,-0.011874,0.002517,0.022348,
959,0.959,-0.008306,0.003234,0.000432,-0.003372,0.004533,-0.002529,0.003062,0.023379,
960,0.960,0.002133,0.000104,-0.000080,0.003941,-0.003064,-0.007585,0.003609,0.022541,
961,0.961,-0.000797,-0.000296,-0.001776,0.006185,0.002214,-0.018236,0.002128,0.009692,
962,0.962,0.000965,-0.002206,0.000756,-0.003941,0.001392,-0.011303,0.001831,0.007846,
963,0.963,-0.005588,-0.002573,-0.003487,0.001667,-0.001132,0.007648,0.001529,0.002803,
964,0.964,-0.009460,0.002475,-0.003999,0.003382,-0.003306,0.026764,-0.001987,-0.011046,
965,0.965,-0.007948,0.000427,-0.002486,0.004938,-0.001247,0.024383,-0.003136,-0.009165,
966,0.966,-0.007983,0.000936,-0.003675,0.000927,0.003017,0.022183,-0.001067,-0.004076,
967,0.967,-0.012282,-0.001905,-0.004861,0.004699,0.001360,0.016101,0.000834,-0.002545,
968,0.968,-0.013410,-0.006586,-0.000642,0.003731,0.001899,0.010526,-0.000145,-0.012182,
969,0.969,-0.016936,0.000438,0.005781,0.000735,0.003115,-0.004677,-0.002472,-0.015896,
970,0.970,-0.014888,0.001378,0.003232,0.001646,0.003491,-0.006687,-0.004968,-0.016901,
971,0.971,-0.015607,-0.001060,0.002546,-0.000813,-0.000705,-0.008528,-0.001697,-0.022136,
972,0.972,-0.018063,-0.000266,-0.002368,0.003000,-0.002364,-0.013590,0.000389,-0.019421,
973,0.973,-0.018708,0.000536,0.003381,0.002410,0.003418,-0.021175,0.004002,-0.009933,
974,0.974,-0.017367,0.003691,0.002698,0.001993,-0.000272,-0.017065,0.007104,-0.003674,
975,0.975,-0.022149,0.002067,0.004725,0.003777,0.001806,-0.005675,0.005973,0.004098,
976,0.976,-0.014147,-0.000415,0.005230,0.002349,0.000148,-0.004092,0.000276,0.007131,
977,0.977,-0.012952,0.001857,-0.000012,0.000245,-0.001515,-0.002677,-0.000513,0.007945,
978,0.978,-0.019278,0.004805,0.002026,-0.002535,0.001058,-0.003778,-0.001140,0.007057,
979,0.979,-0.020074,0.003847,0.000331,-0.008180,-0.004995,-0.020780,0.002463,0.007693,
980,0.980,-0.020757,0.001535,-0.001362,-0.010606,-0.002420,-0.027958,-0.001725,0.008344,
981,0.981,-0.020079,-0.000091,0.004395,-0.009844,-0.001708,-0.021268,-0.003376,0.007830,
982,0.982,-0.021766,0.001844,-0.002536,-0.013342,-0.003706,-0.002750,0.002417,0.001418,
983,0.983,-0.021245,0.003104,-0.001690,-0.011623,-0.003158,0.014590,-0.002793,0.000597,
984,0.984,-0.021811,-0.000548,-0.004231,-0.015653,-0.000240,0.016875,-0.004799,-0.007824,
985,0.985,-0.023129,-0.003020,-0.004913,-0.007836,-0.001723,0.014915,-0.004267,-0.008807,
986,0.986,-0.016930,-0.009036,-0.004243,-0.002194,0.001360,-0.001772,-0.007116,-0.011831,
987,0.987,-0.016331,-0.001184,-0.002555,0.003111,0.001734,0.000470,0.000681,-0.009105,
988,0.988,-0.024409,-0.008383,-0.004255,0.004003,-0.000778,0.006573,-0.000326,-0.006560,
989,0.989,-0.013262,0.000147,0.000464,0.003232,-0.000412,0.012149,0.004939,-0.002826,
990,0.990,-0.012130,-0.000797,0.002144,0.007052,0.004014,0.013819,0.007668,-0.003491,
991,0.991,-0.013996,0.000293,0.005015,0.007832,0.002337,0.009226,0.008540,-0.000435,
992,0.992,-0.010845,0.004929,-0.001756,0.008437,0.002855,0.002261,0.006380,0.001280,
993,0.993,-0.010416,0.004156,0.002799,0.010202,-0.000186,0.001048,0.005737,0.009087,
994,0.994,-0.008016,0.003562,0.001939,0.005491,0.003699,-0.002170,0.005268,0.012331,
995,0.995,-0.013229,-0.001268,-0.001795,0.008585,0.001164,0.003098,-0.003486,0.019650,
996,0.996,-0.001031,-0.005419,-0.001108,0.004565,0.001508,-0.005332,-0.004622,0.026136,
997,0.997,0.026191,-0.007027,-0.000611,0.001048,0.002704,-0.022391,-0.005586,0.030422,
998,0.998,0.021577,-0.009488,0.004606,-0.000127,0.000863,-0.044694,-0.002495,0.031167,
999,0.999,0.017263,-0.006365,-0.000324,-0.001308,-0.004361,-0.041808,-0.001601,0.020575,
1000,1.000,0.005665,-0.009001,-0.002877,-0.003693,-0.003678,-0.020137,-0.001556,0.006588,
1001,1.001,0.008077,-0.007756,-0.001208,-0.009466,-0.001477,-0.011998,0.001023,0.002069,
1002,1.002,0.010080,-0.001941,-0.000723,-0.012052,-0.003505,-0.009619,0.003278,-0.010407,
1003,1.003,-0.004571,0.010962,0.002810,-0.000606,-0.000454,-0.034323,0.001299,-0.015441,
1004,1.004,-0.003150,0.009142,-0.002287,0.004401,-0.000956,-0.037571,0.005576,-0.022998,
1005,1.005,0.007090,0.007491,0.002601,0.008878,-0.002475,-0.010563,0.003929,-0.018882,
1006,1.006,0.004093,0.018193,0.003090,0.012862,0.000578,0.014736,0.003460,-0.012575,
1007,1.007,0.008698,0.033452,-0.000985,0.009067,0.004473,0.037643,0.000456,-0.009314,
1008,1.008,-0.004132,0.027381,-0.003535,0.001215,-0.000254,0.046320,-0.001546,-0.004015,
1009,1.009,-0.012744,0.014368,-0.003212,-0.001881,-0.007184,0.043488,-0.003383,-0.006675,
1010,1.010,-0.012363,0.012689,-0.002883,0.006534,-0.002609,0.041001,-0.003705,-0.007482,
1011,1.011,-0.014495,0.002036,0.002857,0.007494,0.001619,0.034277,-0.004038,-0.014390,
1012,1.012,-0.016451,0.003379,0.000312,0.008453,-0.000588,0.032112,-0.005389,-0.007952,
1013,1.013,-0.007868,-0.000348,0.004022,0.003808,0.000081,0.033856,-0.004716,-0.005408,
1014,1.014,-0.007597,-0.012876,0.001989,-0.009114,-0.002971,0.021942,-0.007940,-0.001688,
1015,1.015,-0.005218,-0.028110,-0.001064,-0.011047,-0.001289,0.011230,-0.004064,0.000338,
1016,1.016,0.003498,-0.034207,0.002984,-0.006050,-0.000784,0.007121,-0.003572,0.004573,
1017,1.017,0.001577,-0.047232,-0.000580,-0.001577,0.002251,-0.004259,-0.000541,0.004080,
1018,1.018,-0.016200,-0.038770,0.000601,-0.008607,0.000214,-0.005820,-0.000220,0.005617,
1019,1.019,0.000391,-0.037254,0.000266,-0.017503,0.005282,-0.007213,-0.005985,0.006799,
1020,1.020,0.001879,-0.035910,0.001290,-0.023197,0.005954,-0.006073,-0.005152,0.006462,
1021,1.021,0.007303,-0.027114,-0.002595,-0.009604,0.002897,-0.013899,-0.007370,0.000706,
1022,1.022,0.008520,-0.012245,-0.002084,-0.007854,0.000003,-0.027648,-0.003820,0.003224,
1023,1.023,-0.000560,0.010234,-0.006315,-0.006276,-0.007790,-0.029559,-0.002130,0.008445,
1024,1.024,0.012770,0.019013,-0.003437,-0.001824,-0.000022,-0.027885,-0.005002,0.006392,
1025,1.025,0.010476,0.010883,-0.001912,-0.000582,0.000979,-0.023277,-0.003487,0.015842,
1026,1.026,0.035544,0.013237,-0.001572,-0.001861,-0.001735,-0.027278,0.001571,0.019892,
1027,1.027,0.031718,0.015403,0.001305,-0.002954,-0.005983,-0.018463,0.000868,0.013624,
1028,1.028,0.034663,0.013345,0.003836,0.002202,-0.005323,-0.017479,0.003876,0.005847,
1029,1.029,0.001513,0.011455,-0.000062,0.014298,-0.001783,-0.008050,0.000960,-0.003609,
1030,1.030,-0.029349,0.013110,-0.001594,0.032811,0.002420,0.003226,-0.000606,-0.012384,
1031,1.031,-0.049343,0.008506,0.000595,0.035084,-0.001664,-0.001377,0.004420,-0.015569,
1032,1.032,-0.023962,0.015392,0.001773,0.019427,-0.002197,-0.005412,0.006405,-0.018595,
1033,1.033,-0.007468,0.021603,0.001426,0.005116,-0.000016,0.000905,0.006884,-0.017735,
1034,1.034,0.031766,0.020543,-0.000269,-0.015461,-0.002070,0.006573,0.003970,-0.008263,
1035,1.035,0.016113,0.015241,-0.001973,-0.023711,0.000445,0.013934,0.010700,-0.009481,
1036,1.036,0.021141,0.010606,0.002245,-0.016565,0.005662,0.024328,0.015234,-0.003932,
1037,1.037,0.034643,0.006306,0.007990,-0.032242,0.003449,0.028421,0.010979,-0.007030,
1038,1.038,0.023171,0.002521,0.004271,-0.042489,0.001414,0.029611,0.010282,-0.006237,
1039,1.039,0.070948,-0.005332,-0.003496,-0.040723,0.001909,0.021815,0.000955,-0.005440,
1040,1.040,0.077870,-0.004377,-0.002472,-0.032347,0.002399,0.012330,-0.005328,-0.009196,
1041,1.041,0.049134,-0.010856,0.005998,-0.018540,0.000856,0.008582,-0.006373,-0.004335,
1042,1.042,0.054960,-0.015145,0.002807,0.005589,0.005073,0.000782,-0.011660,-0.000146,
1043,1.043,0.031438,-0.008276,0.003825,0.015339,0.001007,-0.006499,-0.012566,-0.003073,
1044,1.044,0.018962,-0.003763,-0.006486,0.018153,0.000490,-0.005659,-0.011782,-0.000575,
1045,1.045,0.015838,-0.004663,0.000459,0.020801,-0.005605,-0.009888,-0.009646,0.001582,
1046,1.046,0.013101,-0.000990,0.004188,0.018372,-0.008140,-0.013595,-0.003287,-0.002341,
1047,1.047,0.017192,-0.003049,0.000985,0.016116,-0.007464,-0.004274,-0.004196,0.000170,
1048,1.048,0.015262,0.001152,-0.002046,0.022144,0.001835,-0.010525,-0.002060,0.007088,
1049,1.049,0.018926,0.005169,0.004397,0.016499,0.003017,-0.009498,0.001436,0.008074,
1050,1.050,0.052184,0.000388,-0.001514,0.014760,0.006225,-0.008459,-0.005552,0.007198,
1051,1.051,0.083929,0.004570,-0.000828,0.010151,0.003174,-0.003819,-0.001037,0.006299,
1052,1.052,0.057004,0.005036,0.001212,0.008759,0.000465,0.002226,-0.000235,-0.002220,
1053,1.053,0.025305,0.002453,-0.001826,0.012441,0.002991,0.010825,-0.002479,0.000926,
1054,1.054,0.039579,-0.003706,-0.001307,0.004623,-0.000738,0.018699,-0.001850,0.003901,
1055,1.055,0.036788,-0.001265,0.000216,0.003572,-0.000069,0.026058,-0.002403,0.004669,
1056,1.056,0.027049,0.003880,-0.000116,0.000837,-0.003123,0.025300,0.002803,0.000379,
1057,1.057,0.024938,0.001781,0.002762,-0.003413,-0.000251,0.026254,0.006322,0.002530,
1058,1.058,0.005239,-0.002500,-0.002983,0.001805,0.000261,0.022669,0.007980,0.003169,
1059,1.059,-0.001758,-0.000885,-0.002129,0.009569,0.000602,0.020782,0.012013,0.004835,
1060,1.060,-0.002995,0.005811,-0.004318,0.006505,0.006184,0.016664,0.008435,0.004310,
1061,1.061,-0.026547,-0.000671,0.000601,0.009222,0.003990,0.007924,0.008753,0.002770,
1062,1.062,-0.002403,0.000133,-0.006315,0.001472,0.000443,-0.010995,0.008399,0.003947,
1063,1.063,-0.040374,0.000783,-0.001725,0.002511,0.000949,-0.013655,0.007366,-0.002466,
1064,1.064,-0.065814,-0.004138,0.002519,0.003365,-0.003119,-0.020841,0.004139,-0.005142,
1065,1.065,-0.050285,-0.009920,0.001834,0.007598,0.003644,-0.022967,0.002093,-0.005954,
1066,1.066,-0.053597,-0.012173,-0.003080,0.005444,-0.000926,-0.029020,0.003089,-0.003724,
1067,1.067,-0.040738,-0.007336,-0.003588,0.003492,-0.001771,-0.027131,-0.002166,0.002730,
1068,1.068,0.014916,-0.001631,-0.003084,0.006630,-0.002446,-0.025444,-0.004375,0.000216,
1069,1.069,0.008017,-0.006924,-0.002582,0.001468,0.001101,-0.017852,-0.002355,0.005474,
1070,1.070,0.015884,0.000808,-0.001400,-0.000501,0.001605,-0.010947,-0.010666,0.013264,
1071,1.071,0.023035,0.001796,-0.000219,0.001233,-0.003646,-0.004726,-0.009661,0.016304,
1072,1.072,-0.005586,-0.000916,0.000795,-0.000397,0.001252,-0.021879,-0.010690,0.018994,
1073,1.073,-0.042208,-0.005131,-0.000220,-0.005079,-0.001801,-0.044292,-0.002240,0.018129,
1074,1.074,-0.085318,-0.004421,0.001470,-0.014485,-0.004690,-0.035582,0.000972,0.008133,
1075,1.075,-0.055558,0.004930,0.000797,-0.024063,0.002079,0.000054,0.001992,0.004064,
1076,1.076,-0.017943,0.001242,0.003169,-0.015194,-0.000636,0.033856,0.006565,-0.007271,
1077,1.077,-0.051372,0.002296,0.003506,-0.016145,-0.001495,0.038220,0.005743,-0.017918,
1078,1.078,-0.064197,0.003372,0.003682,-0.008785,0.003740,0.034315,0.007960,-0.019267,
1079,1.079,-0.043921,0.000731,0.003017,-0.006004,0.003057,0.016227,0.005956,-0.022987,
1080,1.080,-0.025633,0.006704,0.003186,-0.003385,0.004741,-0.013523,0.001744,-0.015211,
1081,1.081,-0.035350,0.004547,0.001162,0.001952,-0.001687,-0.017376,-0.007035,-0.014207,
1082,1.082,-0.038210,0.001030,-0.001698,0.009830,0.002534,-0.020901,-0.003296,-0.003897,
1083,1.083,-0.051958,0.006824,0.003385,0.021402,0.003211,-0.017663,-0.004286,0.011316,
1084,1.084,-0.034810,0.009063,0.002718,0.022975,0.003889,-0.008825,-0.005274,0.009288,
1085,1.085,-0.001285,0.007070,0.001031,0.013363,-0.003051,0.010352,-0.009823,0.018600,
1086,1.086,-0.006275,0.005403,-0.003017,0.004596,-0.007610,0.027654,-0.007260,0.016915,
1087,1.087,-0.002183,0.005933,-0.009768,0.001434,-0.003369,0.038863,-0.005030,0.012365,
1088,1.088,-0.014354,0.002385,-0.001281,-0.005783,0.000355,0.032805,-0.001451,0.002743,
1089,1.089,-0.003907,-0.004545,-0.002283,-0.014197,0.003904,0.034697,0.002801,0.006485,
1090,1.090,-0.007532,0.002728,-0.007525,-0.013136,-0.003040,0.019489,0.009247,0.003294,
1091,1.091,-0.028842,0.007289,0.002795,-0.010030,-0.005756,0.005282,0.015179,0.008560,
1092,1.092,-0.026750,-0.002195,0.001454,-0.007250,-0.004918,0.003407,0.011469,0.002163,
1093,1.093,-0.025082,-0.003373,0.000276,-0.009699,-0.004253,-0.001699,0.009451,0.001352,
1094,1.094,-0.028096,-0.008935,-0.000736,-0.004366,-0.009181,-0.006319,0.006420,-0.005544,
1095,1.095,-0.030995,-0.020417,-0.001754,-0.006319,-0.004967,-0.010429,0.001189,-0.008209,
1096,1.096,-0.033762,-0.015829,-0.002597,-0.002006,-0.000932,-0.009299,0.001891,-0.015948,
1097,1.097,-0.022870,-0.003295,-0.000052,0.000940,-0.003484,-0.014937,0.000225,-0.010661,
1098,1.098,-0.000878,0.001797,0.000633,-0.005774,-0.001307,-0.009743,-0.001441,-0.017051,
1099,1.099,0.001319,0.003329,-0.000039,-0.006574,-0.000134,-0.020124,-0.000910,-0.009238,
1100,1.100,-0.002532,0.001991,0.000487,-0.005689,-0.000477,-0.040988,-0.003933,-0.003975,
1101,1.101,-0.068808,0.008576,0.003369,-0.000247,0.005776,-0.039357,-0.001728,-0.003633,
1102,1.102,-0.028707,0.027516,0.001688,0.008241,0.004078,-0.012335,-0.000537,-0.000950,
1103,1.103,-0.024007,0.035631,0.005260,0.011484,0.003725,-0.001535,0.000484,0.004915,
1104,1.104,0.001434,0.028350,0.003068,0.008465,0.003885,0.014856,-0.004748,0.001124,
1105,1.105,-0.004428,0.008043,0.005105,0.005779,0.002179,0.011967,-0.006922,0.000373,
1106,1.106,-0.001165,-0.000070,-0.000636,0.006638,-0.001561,-0.001737,-0.006222,-0.001381,
1107,1.107,-0.014161,0.007214,-0.003163,-0.001818,-0.002085,-0.009019,-0.009237,-0.003121,
1108,1.108,-0.018896,-0.008339,-0.002471,0.001389,-0.003284,0.002138,-0.007500,-0.006699,
1109,1.109,-0.023377,-0.018489,-0.003141,-0.010130,-0.002111,0.024618,-0.007961,-0.003664,
1110,1.110,-0.015949,-0.027787,-0.003635,-0.017759,0.000408,0.027463,-0.006729,-0.010081,
1111,1.111,0.001812,-0.029470,-0.006500,-0.008135,0.003612,0.002726,-0.002796,-0.014634,
1112,1.112,-0.006835,-0.030986,0.001301,0.003182,0.007495,-0.027095,-0.002253,-0.017165,
1113,1.113,-0.032879,-0.018462,0.013822,0.001646,0.001728,-0.023271,0.000816,-0.011924,
1114,1.114,0.002140,-0.003234,0.008762,-0.019182,0.002388,-0.005223,0.006409,-0.005514,
1115,1.115,0.034624,0.010979,0.004200,-0.028002,0.000340,-0.002042,0.002692,0.002234,
1116,1.116,0.011370,-0.002050,0.002856,-0.025316,0.000834,0.012837,0.004721,0.003220,
1117,1.117,0.062245,0.013171,0.004044,-0.012987,0.003692,0.020954,0.005220,0.009621,
1118,1.118,0.110814,0.019271,0.000830,0.002545,0.004180,0.023315,0.010446,0.012145,
1119,1.119,0.090469,0.009975,0.001849,0.016722,0.004499,0.025504,0.002645,0.017380,
1120,1.120,0.095258,0.004902,-0.002711,0.014820,0.001605,0.035648,0.005664,0.018045,
1121,1.121,0.078415,0.003385,-0.001858,0.019849,-0.000946,0.033781,0.004791,0.018547,
1122,1.122,0.063290,0.002032,-0.002530,0.012192,-0.000635,0.032098,0.002244,0.014482,
1123,1.123,0.049338,-0.004241,-0.003195,0.016203,-0.005730,0.012122,-0.002996,0.006683,
1124,1.124,0.060373,-0.003239,-0.001496,0.009896,0.002030,-0.001598,-0.000960,0.003435,
1125,1.125,0.019457,-0.006304,0.002566,0.013053,0.003027,0.000774,-0.007874,-0.003887,
1126,1.126,-0.007819,-0.020353,-0.002172,-0.002731,-0.001562,-0.005791,-0.003301,-0.004783,
1127,1.127,-0.013165,-0.022402,-0.003861,0.008410,-0.002426,-0.019943,-0.005827,-0.007389,
1128,1.128,0.008288,-0.013126,0.001376,0.006371,0.001278,-0.018023,-0.000582,-0.005257,
1129,1.129,0.011695,-0.004704,-0.003535,0.004522,-0.002286,-0.019666,-0.001252,-0.003289,
1130,1.130,0.014866,-0.003227,-0.007763,-0.003922,0.000749,-0.015050,0.001782,-0.002843,
1131,1.131,0.030991,-0.004638,-0.001328,0.000655,-0.004504,-0.013659,-0.002283,0.002354,
1132,1.132,0.033673,-0.000981,-0.002178,0.002023,-0.003841,-0.019858,-0.002807,-0.002589,
1133,1.133,0.025446,-0.002054,0.000018,0.003202,-0.000806,-0.027544,0.000221,0.001618,
1134,1.134,0.037693,0.000949,-0.004901,0.002181,-0.007243,-0.013761,-0.000976,0.003311,
1135,1.135,0.022122,-0.001785,-0.004405,-0.005111,-0.006408,-0.008129,-0.002846,-0.000247,
1136,1.136,-0.004342,0.007669,-0.008481,-0.011572,-0.001174,-0.003024,-0.003872,-0.002441,
1137,1.137,-0.022254,0.003936,-0.000722,-0.002132,0.000844,-0.007579,-0.002191,-0.001252,
1138,1.138,-0.018825,0.004959,0.002468,0.004103,0.002538,-0.006254,-0.004059,-0.000910,
1139,1.139,-0.003691,0.010223,0.003469,0.003076,0.003049,-0.005118,-0.000681,-0.001935,
1140,1.140,0.004747,0.009402,0.000745,0.004073,0.000525,0.002604,0.000490,-0.003631,
1141,1.141,0.017462,-0.001743,0.001578,0.004904,0.003569,0.007790,-0.000706,-0.003817,
1142,1.142,0.033406,-0.003251,0.003769,0.004068,0.006442,0.016183,0.000304,-0.007224,
1143,1.143,0.019654,0.000804,0.001726,0.006290,0.000696,0.012902,0.004177,-0.006909,
1144,1.144,0.007138,0.001976,0.002207,-0.004363,0.003235,0.011857,-0.000576,-0.005747,
1145,1.145,0.002628,0.007527,0.000480,-0.002831,-0.003707,0.011076,0.003632,-0.007631,
1146,1.146,0.017122,0.004438,-0.002090,0.001223,0.002724,0.012051,0.003106,-0.002412,
1147,1.147,-0.010108,0.010797,-0.000936,0.002406,0.000191,0.014357,0.005627,0.004492,
1148,1.148,-0.053365,0.006496,-0.005702,-0.003175,-0.003527,0.010858,0.006790,0.009044,
1149,1.149,-0.046822,0.017965,0.000033,-0.002172,-0.001491,0.012552,0.011494,0.013258,
1150,1.150,-0.030084,0.012846,-0.002195,-0.008605,-0.003178,0.003739,0.010953,0.024753,
1151,1.151,-0.033924,0.008255,-0.005776,-0.011152,-0.000290,-0.005067,0.009223,0.033205,
1152,1.152,-0.019845,0.004201,0.001137,-0.008971,-0.001798,-0.006090,0.001411,0.034728,
1153,1.153,-0.014997,0.000516,0.001953,-0.011040,-0.001444,-0.007094,-0.006402,0.030672,
1154,1.154,-0.017597,-0.007218,0.001080,-0.006863,0.002459,-0.011684,-0.005428,0.014277,
1155,1.155,-0.013362,-0.006173,0.000371,-0.002858,-0.001072,-0.010896,-0.006321,-0.001272,
1156,1.156,0.002557,-0.007021,-0.001683,0.000645,0.000127,-0.011654,-0.014152,-0.015470,
1157,1.157,0.044702,-0.002807,0.001325,0.007540,-0.001879,-0.008204,-0.013189,-0.024758,
1158,1.158,0.098709,-0.005021,-0.001576,0.008520,0.003220,-0.002549,-0.012393,-0.033200,
1159,1.159,0.078499,-0.003026,-0.001095,0.003942,-0.000311,-0.000437,-0.009903,-0.031660,
1160,1.160,0.073189,-0.006124,-0.002300,0.001415,-0.003334,0.000166,-0.006223,-0.021996,
1161,1.161,0.068540,-0.004487,0.004110,-0.007006,-0.000436,0.003139,0.000166,-0.013173,
1162,1.162,0.053754,-0.001985,-0.000475,-0.001370,0.001099,-0.002188,0.006063,-0.005370,
1163,1.163,0.050158,-0.005057,0.007292,-0.000297,-0.000073,-0.012939,0.005368,0.004131,
1164,1.164,0.020446,-0.002187,0.002042,-0.001115,0.001124,-0.020631,0.006030,0.000441,
1165,1.165,0.017649,-0.001820,0.002872,-0.003633,0.000789,-0.016627,0.009068,0.001494,
1166,1.166,0.007956,-0.005666,0.003700,0.001618,0.001801,-0.002803,0.009562,-0.003704,
1167,1.167,-0.007397,-0.000892,0.001475,0.003651,0.001461,0.006467,0.008026,-0.008235,
1168,1.168,-0.051350,-0.000310,-0.000579,0.004163,0.002817,0.011500,0.011049,-0.002275,
1169,1.169,-0.031061,0.001440,-0.000093,0.004696,-0.000054,0.016016,0.005439,-0.002924,
1170,1.170,-0.118246,0.004037,0.001577,0.004215,0.005707,0.009025,-0.004582,-0.003561,
1171,1.171,-0.079659,0.009162,-0.003187,0.005436,0.003175,0.015234,-0.011551,0.003403,
1172,1.172,-0.021317,0.004304,-0.001525,0.001584,0.002505,0.007391,-0.005328,0.009866,
1173,1.173,0.010598,0.007402,0.002509,0.004158,-0.001031,0.004274,-0.013138,0.009046,
1174,1.174,0.001933,0.003388,0.002993,-0.001897,0.004734,0.006873,-0.001655,0.006859,
1175,1.175,-0.005981,0.004959,-0.000072,-0.009623,0.001033,0.004214,-0.003186,0.011760,
1176,1.176,-0.028678,0.009236,0.004656,-0.014815,0.000374,-0.002841,0.000849,0.005986,
1177,1.177,-0.020987,0.010964,0.001587,-0.017510,-0.001304,-0.005648,-0.002888,0.005294,
1178,1.178,-0.026853,0.011505,-0.004868,-0.013280,-0.001794,-0.018612,0.004878,0.005962,
1179,1.179,-0.032060,0.018484,-0.007419,-0.004818,-0.002284,-0.024263,-0.002402,0.004269,
1180,1.180,-0.047443,0.015484,-0.002188,-0.003807,-0.001935,-0.032751,0.000303,0.000203,
1181,1.181,-0.051724,0.005217,-0.004235,0.011920,-0.001577,-0.046619,0.002839,-0.001327,
1182,1.182,-0.011508,-0.004369,0.005227,0.014109,-0.001224,-0.022421,-0.000892,-0.007424,
1183,1.183,-0.016323,-0.013101,0.001160,0.016129,0.000489,0.007361,-0.002927,-0.004909,
1184,1.184,-0.020655,-0.018627,0.002345,0.014273,-0.003881,0.027341,-0.002413,-0.007127,
1185,1.185,-0.042270,-0.021612,0.003363,0.005812,-0.002164,0.038201,-0.000713,-0.009179,
1186,1.186,-0.014041,-0.030011,0.000327,-0.001796,-0.006871,0.054632,-0.000204,-0.010886,
1187,1.187,-0.002956,-0.033167,-0.000507,-0.011426,-0.003799,0.045854,0.000145,-0.005639,
1188,1.188,-0.005912,-0.032114,0.000356,-0.007702,-0.006639,0.037746,0.006582,-0.004935,
1189,1.189,-0.002763,-0.018021,-0.004875,-0.004470,0.000158,0.015434,0.005738,0.002054,
1190,1.190,0.011209,-0.007806,-0.001313,-0.013904,0.001035,0.006654,0.001516,0.008549,
1191,1.191,-0.000909,0.001555,0.000388,-0.015036,-0.001477,0.003990,0.003720,0.004375,
1192,1.192,0.001469,0.006668,0.006815,-0.000102,0.002276,-0.023190,-0.001180,0.003747,
1193,1.193,-0.000447,0.017368,0.009355,0.001963,0.005861,-0.077773,-0.001690,0.001750,
1194,1.194,-0.005966,0.018755,0.005638,0.011319,0.002834,-0.101067,-0.005746,0.003480,
1195,1.195,-0.011021,0.037733,0.002096,0.009681,0.004544,-0.065498,-0.006256,0.006388,
1196,1.196,-0.000397,0.040474,0.001588,0.008215,0.003039,-0.020301,-0.003206,0.001681,
1197,1.197,-0.004502,0.013262,-0.006022,0.012337,0.003402,0.020686,0.003228,0.001213,
1198,1.198,-0.008322,0.016844,0.001263,0.006142,0.003761,0.026026,0.004082,0.004139,
1199,1.199,-0.025524,0.000451,0.000418,0.009406,-0.001301,0.011719,0.004933,0.006725,
1200,1.200,-0.023312,-0.014408,-0.002109,0.016736,0.000739,0.016155,0.001214,0.002552,
1201,1.201,-0.016899,-0.022515,0.000094,0.028973,-0.002292,0.020058,0.001889,0.002114,
1202,1.202,0.011142,-0.025052,-0.000061,0.031228,-0.000590,0.042722,0.008302,-0.001043,
1203,1.203,-0.003252,-0.017784,0.000628,0.022827,-0.005828,0.060817,0.007781,-0.002514,
1204,1.204,-0.001537,-0.006636,-0.003583,0.012224,-0.002265,0.057597,0.007256,-0.001299,
1205,1.205,0.006742,-0.000572,0.000484,0.002635,-0.009187,0.048798,0.008775,-0.003331,
1206,1.206,-0.004096,0.004988,-0.007291,-0.006101,-0.006474,0.029677,0.005730,-0.003011,
1207,1.207,-0.025087,0.010042,-0.004084,-0.018567,-0.003931,0.022398,0.004557,-0.004052,
1208,1.208,-0.022374,0.017640,-0.007133,-0.033752,-0.001723,0.015798,0.001018,-0.002384,
1209,1.209,0.002164,0.016281,-0.006286,-0.043847,0.000310,0.005660,0.000705,-0.006628,
1210,1.210,0.005159,0.007472,-0.005439,-0.038208,0.007241,-0.007328,-0.005690,-0.002396,
1211,1.211,-0.015915,0.006446,-0.001723,-0.026304,0.008088,-0.015712,-0.008355,-0.004059,
1212,1.212,0.013878,0.003398,-0.001041,-0.003243,0.002164,-0.017144,-0.007464,-0.000459,
1213,1.213,0.017420,-0.006926,0.000653,-0.006394,0.007399,-0.018413,-0.008092,0.000781,
1214,1.214,-0.001049,-0.008295,-0.001035,0.002466,0.009420,-0.019546,-0.006020,-0.000351,
1215,1.215,0.021534,-0.009495,0.003702,0.010634,0.006365,-0.018494,-0.004290,0.005444,
1216,1.216,0.035998,-0.022034,0.002004,0.017947,0.003482,-0.011180,0.001003,0.004645,
1217,1.217,0.054673,-0.006839,-0.000878,0.011398,0.001948,-0.006556,0.005959,0.009929,
1218,1.218,0.036961,-0.012951,0.000637,0.013486,-0.002295,-0.007358,0.007689,0.000659,
1219,1.219,0.056745,-0.007397,0.001815,0.000509,-0.001796,-0.009509,0.002475,0.004434,
1220,1.220,0.031595,-0.005728,0.004683,-0.001137,-0.003335,-0.007438,0.003178,-0.003303,
1221,1.221,0.014646,-0.007270,0.002810,-0.005673,-0.007568,-0.005717,-0.003754,-0.002255,
1222,1.222,-0.030819,-0.003225,0.001106,-0.004286,-0.007079,0.003112,-0.010186,0.000483,
1223,1.223,0.013941,-0.002052,0.000760,-0.020672,-0.004554,0.004334,-0.012715,0.008286,
1224,1.224,0.007805,-0.001049,-0.003467,-0.014071,-0.002375,0.005421,-0.002740,0.013528,
1225,1.225,0.012677,0.001972,0.004815,0.004345,-0.001206,-0.008151,-0.004077,0.007077,
1226,1.226,0.007524,0.006519,0.005822,0.016662,-0.003754,-0.006164,-0.002874,0.001133,
1227,1.227,0.011513,0.007361,0.000576,0.010025,-0.000553,-0.021309,-0.003846,-0.001093,
1228,1.228,0.007213,0.011076,-0.002136,0.012013,0.002314,-0.035441,-0.004821,0.003779,
1229,1.229,0.024908,0.006149,0.000389,0.006411,-0.001932,-0.040970,-0.002073,0.004258,
1230,1.230,0.001495,0.001902,0.001046,0.011463,-0.000261,-0.029093,0.002190,0.005925,
1231,1.231,-0.001803,-0.001007,-0.000998,0.009921,-0.003825,-0.021475,0.000034,0.010635,
1232,1.232,-0.015924,0.002502,-0.004059,0.000295,-0.005024,-0.020143,-0.003465,0.008919,
1233,1.233,-0.013934,0.001274,-0.005751,0.004050,-0.004706,-0.011338,-0.003929,0.008391,
1234,1.234,-0.007745,-0.000800,-0.007279,-0.003711,-0.004385,0.005767,0.001349,0.000603,
1235,1.235,-0.006130,0.003385,-0.007628,-0.008974,0.000838,0.013055,-0.003515,-0.011922,
1236,1.236,-0.030741,0.010954,-0.004760,0.005030,-0.002914,0.015255,0.000750,-0.023754,
1237,1.237,-0.047542,-0.000598,0.000993,-0.001113,0.000613,0.013209,0.004844,-0.034403,
1238,1.238,-0.045046,-0.008240,0.003522,-0.014214,0.000085,0.015013,0.004363,-0.035743,
1239,1.239,-0.026311,-0.004195,0.001322,-0.019370,0.001757,0.003097,0.005584,-0.021867,
1240,1.240,-0.004390,-0.000489,0.007741,-0.011852,-0.000790,-0.001548,0.004430,-0.012549,
1241,1.241,0.022257,-0.003705,0.005198,-0.002312,-0.001124,0.002423,0.010210,-0.000701,
1242,1.242,0.018277,0.003575,0.001475,-0.011210,0.003606,0.003579,0.006009,-0.002216,
1243,1.243,0.014637,0.002734,-0.002084,-0.014511,0.004108,0.006785,0.006711,0.004715,
1244,1.244,0.022984,0.001894,0.003666,-0.011527,0.000043,0.014008,0.003181,0.005895,
1245,1.245,0.014388,0.004064,-0.000054,-0.008852,-0.001487,-0.000090,0.001507,0.002683,
1246,1.246,0.011563,0.000437,-0.003614,-0.006342,-0.000316,-0.026681,0.001015,-0.000358,
1247,1.247,-0.013621,0.003398,0.000606,0.000565,0.002538,-0.008595,0.002555,0.002341,
1248,1.248,0.008897,-0.001926,-0.001097,-0.000300,0.004371,0.014431,0.005624,-0.001902,
1249,1.249,0.023312,0.001561,0.001440,-0.002884,0.001121,0.023253,0.004457,-0.007171,
1250,1.250,0.020108,0.003176,-0.005505,-0.000732,0.003964,0.025949,0.010221,0.002090,
1251,1.251,-0.002728,0.002598,-0.000269,0.002775,0.004281,0.023540,0.002450,0.000848,
1252,1.252,-0.036183,0.005074,-0.002977,0.004419,0.001051,0.021276,0.001443,0.006366,
1253,1.253,-0.023502,0.005384,0.002942,0.008394,-0.000151,0.015138,-0.004973,0.013571,
1254,1.254,-0.027984,0.002498,0.002266,0.004724,0.002358,0.016966,-0.005816,0.012666,
1255,1.255,-0.025089,0.001487,0.008693,0.011549,0.002001,0.015213,-0.012755,0.010098,
1256,1.256,-0.028925,-0.001712,0.006165,0.018704,-0.002419,0.013593,-0.008187,0.006365,
1257,1.257,-0.020743,-0.007285,0.000926,0.004540,0.003999,0.006525,-0.010724,0.001465,
1258,1.258,-0.018642,-0.002021,0.000252,-0.001671,0.004840,-0.010042,-0.010061,-0.002757,
1259,1.259,-0.012019,-0.004037,0.003301,-0.007381,-0.002094,-0.030496,-0.009396,-0.007997,
1260,1.260,-0.001502,-0.007078,-0.000748,-0.005815,0.002481,-0.033326,-0.005178,-0.010024,
1261,1.261,-0.008173,-0.004202,-0.002255,-0.007443,0.005024,-0.026148,-0.003507,-0.006973,
1262,1.262,-0.010643,0.001562,-0.000040,-0.006165,0.002830,-0.005939,0.000021,0.000640,
1263,1.263,-0.002760,0.002243,-0.001203,0.002581,0.002149,0.002083,0.002196,0.003692,
1264,1.264,-0.010917,0.004253,0.002376,0.005744,-0.000891,0.004354,-0.004252,0.000995,
1265,1.265,-0.007474,0.005934,0.001219,0.000460,0.000805,0.002049,-0.005111,0.001847,
1266,1.266,-0.006869,0.003062,0.000061,-0.005996,0.001312,0.012099,0.000802,0.002530,
1267,1.267,0.009638,0.004579,-0.002445,-0.001783,-0.002929,0.006433,0.006048,-0.005250,
1268,1.268,-0.013244,0.000366,-0.000732,-0.001131,-0.000062,0.008085,0.004017,-0.000004,
1269,1.269,0.006985,-0.001336,0.002335,0.005272,-0.005822,0.006538,0.010956,0.006420,
1270,1.270,-0.001705,-0.003884,-0.000174,0.001001,0.001111,0.002452,0.011794,0.008947,
1271,1.271,0.000044,-0.009961,-0.002520,0.003165,-0.003452,-0.008913,0.007552,0.014166,
1272,1.272,0.001632,-0.007414,-0.005539,0.013792,-0.000903,-0.031945,0.011260,0.021931,
1273,1.273,-0.013161,-0.002159,0.000235,0.021371,-0.001575,-0.061746,0.003452,0.027142,
1274,1.274,0.010520,-0.004175,-0.000589,0.017253,-0.006460,-0.049928,0.000389,0.020678,
1275,1.275,-0.006373,-0.012448,-0.002775,0.016020,-0.004746,-0.017141,-0.011804,0.012864,
1276,1.276,0.001977,-0.009219,-0.002077,0.012767,-0.007598,-0.012758,-0.010132,0.011817,
1277,1.277,-0.001190,0.000284,-0.000365,-0.000960,-0.000810,-0.000914,-0.005590,0.003332,
1278,1.278,0.000702,-0.000872,0.003713,0.004601,0.001921,0.009898,-0.004251,-0.002276,
1279,1.279,0.006852,0.004738,0.003227,-0.000500,-0.003971,0.026289,-0.007990,-0.005333,
1280,1.280,0.008486,0.003751,0.003587,-0.017430,-0.000228,0.035074,-0.011205,-0.008031,
1281,1.281,0.006228,-0.000792,-0.001975,-0.028598,0.003352,0.026977,-0.005959,-0.012242,
1282,1.282,0.021139,-0.003312,-0.001277,-0.018444,0.001688,0.029378,0.000463,-0.017456,
1283,1.283,0.018819,-0.001090,0.002297,0.002033,0.002227,0.031620,-0.003779,-0.015398,
1284,1.284,0.009278,0.000961,0.000627,0.004755,0.008016,0.029635,0.001451,-0.022309,
1285,1.285,0.007407,0.005207,-0.006960,0.007140,0.002809,0.031540,0.002101,-0.017731,
1286,1.286,0.002714,-0.003569,0.000333,0.013772,0.000823,0.033281,0.006294,-0.013492,
1287,1.287,-0.001458,-0.004738,-0.004216,0.015869,0.000360,0.022676,0.001014,-0.005035,
1288,1.288,0.014914,0.007794,0.000033,0.021515,-0.002464,0.001915,0.003005,-0.006052,
1289,1.289,0.021564,0.006106,0.000736,0.016497,-0.009183,-0.000918,-0.000071,0.001226,
1290,1.290,0.011521,0.004597,-0.001280,0.011989,-0.002718,-0.042004,0.000400,-0.003324,
1291,1.291,0.006130,0.005966,0.005678,0.008021,-0.000155,-0.059420,-0.001154,0.002615,
1292,1.292,0.014858,0.007175,0.001132,-0.010814,0.000550,-0.043507,-0.000001,0.000426,
1293,1.293,0.022787,0.024292,-0.003072,-0.024406,-0.000091,-0.029112,0.001159,-0.003133,
1294,1.294,0.002376,0.051544,0.000663,-0.026656,0.004166,-0.007095,0.002142,-0.003648,
1295,1.295,0.023706,0.040741,0.001356,-0.024336,0.007068,0.012907,0.002449,0.000401,
1296,1.296,0.016110,0.010989,-0.000325,-0.026233,0.009623,0.009375,0.000733,0.003954,
1297,1.297,-0.000636,-0.000832,-0.002015,-0.009341,0.011845,-0.000423,0.003740,0.010899,
1298,1.298,0.006490,-0.004352,0.003746,-0.006996,0.005434,0.008406,0.004034,0.020405,
1299,1.299,0.013132,-0.014133,0.001561,-0.004836,-0.000970,0.022170,0.001468,0.021635,
1300,1.300,-0.006699,-0.016974,-0.000453,0.000876,-0.005183,0.029501,0.002464,0.020682,
1301,1.301,0.035075,-0.030655,0.000060,0.019623,-0.001434,0.018397,0.000085,0.017706,
1302,1.302,0.065021,-0.028287,-0.000434,0.027036,0.003500,0.004243,0.004308,0.007455,
1303,1.303,0.090736,-0.022368,-0.000766,0.011102,-0.000364,0.007338,0.003955,-0.010926,
1304,1.304,0.054336,-0.020163,-0.004313,0.009038,-0.000846,0.012951,-0.000284,-0.020507,
1305,1.305,0.030931,-0.010002,-0.003125,0.007134,-0.003689,0.014668,-0.003167,-0.026715,
1306,1.306,0.009756,-0.011839,0.001626,0.001674,-0.004165,0.019264,0.003577,-0.021102,
1307,1.307,0.038525,-0.003351,0.001116,0.003493,-0.005328,0.006773,-0.001001,-0.013815,
1308,1.308,0.042966,0.001246,-0.001763,0.005130,-0.005641,-0.018575,-0.001862,-0.011110,
1309,1.309,-0.005688,-0.002774,-0.002279,0.003882,-0.000539,-0.036645,0.000326,-0.006898,
1310,1.310,0.002377,-0.008970,0.000764,-0.002289,0.000152,-0.033399,0.002339,-0.001681,
1311,1.311,-0.003040,-0.003316,-0.001269,-0.001205,0.001864,-0.018439,0.002839,-0.002393,
1312,1.312,-0.019405,0.008247,-0.003136,-0.000146,-0.000983,-0.010213,-0.000042,-0.001913,
1313,1.313,0.018923,0.003726,-0.003482,-0.000956,-0.000452,0.002254,-0.002571,0.000948,
1314,1.314,0.005618,-0.003174,0.000232,-0.003458,0.000753,0.004555,-0.003746,0.003478,
1315,1.315,0.011108,0.000578,-0.004001,-0.007140,0.005506,0.002597,-0.006616,0.005681,
1316,1.316,0.000366,-0.000402,0.001246,-0.005063,0.002476,-0.017834,-0.002370,0.006878,
1317,1.317,0.005036,0.015361,0.001921,-0.003333,0.000805,-0.020504,-0.005217,0.004349,
1318,1.318,0.009365,0.017596,-0.001130,0.001946,-0.001716,-0.013200,-0.001634,0.009579,
1319,1.319,0.025322,0.003423,0.002922,-0.001554,-0.004743,-0.002012,0.000597,0.013289,
1320,1.320,0.012696,0.005314,-0.000635,-0.003168,-0.008623,0.000043,-0.002246,0.006853,
1321,1.321,-0.018566,0.007041,0.000532,0.003344,-0.000819,0.009374,0.003545,0.018003,
1322,1.322,-0.021891,0.005541,0.000856,0.012904,-0.006380,0.007695,-0.002347,0.019514,
1323,1.323,-0.024703,0.004208,0.003388,0.014203,-0.003308,0.012262,0.001407,0.015448,
1324,1.324,-0.027259,0.005417,0.003055,0.017526,-0.002430,-0.002982,0.004973,0.006664,
1325,1.325,-0.003283,-0.002351,0.002030,0.012397,0.000139,-0.009064,0.008032,-0.001104,
1326,1.326,0.024683,-0.001329,0.000150,0.004045,0.000848,0.000282,-0.000768,-0.002108,
1327,1.327,0.014730,-0.000477,-0.003759,0.007341,0.000202,0.002021,0.000419,-0.006667,
1328,1.328,0.005730,-0.004684,-0.000897,-0.004115,0.003282,0.003593,-0.007363,-0.017842,
1329,1.329,0.009366,-0.003998,-0.000403,-0.005598,0.000445,-0.003296,-0.006338,-0.019386,
1330,1.330,-0.025639,-0.000435,-0.001599,-0.009635,-0.000035,0.000489,-0.001765,-0.020769,
1331,1.331,-0.020243,-0.000923,-0.002804,-0.013350,-0.002219,-0.000466,0.000787,-0.017081,
1332,1.332,-0.024044,-0.000391,-0.002492,-0.010131,-0.003387,0.006876,0.001491,-0.011524,
1333,1.333,-0.027398,0.001149,-0.003528,-0.011133,-0.001514,0.015455,0.010837,-0.004269,
1334,1.334,-0.030481,0.001509,0.001531,-0.017542,-0.001832,0.012426,0.012056,-0.006988,
1335,1.335,-0.020260,0.007110,0.003537,-0.023455,-0.002821,0.007377,0.011088,-0.001080,
1336,1.336,-0.040749,0.000174,0.005210,-0.016524,-0.004146,0.006754,0.012138,0.001118,
1337,1.337,-0.054164,0.002839,0.001131,-0.011960,-0.000733,0.006062,0.003718,0.003153,
1338,1.338,-0.036656,0.000260,0.005849,-0.007752,0.006242,0.011366,0.004761,0.007387,
1339,1.339,-0.043060,0.000893,0.001605,-0.016249,0.011518,0.014894,-0.000457,0.013816,
1340,1.340,-0.044960,-0.005582,-0.001292,-0.015277,0.006971,0.011773,0.000409,0.023290,
1341,1.341,-0.046771,-0.004787,-0.006049,-0.012297,0.004454,0.007574,-0.007357,0.026994,
1342,1.342,-0.065386,0.003638,-0.000309,-0.011542,0.006660,0.000649,-0.002089,0.025965,
1343,1.343,-0.102675,-0.001984,0.000339,-0.003880,0.004628,-0.005895,-0.004762,0.020706,
1344,1.344,-0.065595,0.001043,0.000978,-0.005038,0.007663,-0.001773,-0.008956,0.006657,
1345,1.345,-0.022155,-0.001638,0.003992,-0.006011,0.003588,-0.008792,0.001048,-0.003504,
1346,1.346,-0.016693,-0.007560,-0.000085,-0.000186,0.007121,-0.006151,0.005131,-0.016537,
1347,1.347,0.009418,-0.006915,-0.003646,0.011236,0.001007,-0.010440,-0.003646,-0.024988,
1348,1.348,-0.015394,-0.006290,-0.003999,0.009487,0.003529,-0.005259,-0.009210,-0.032589,
1349,1.349,-0.011621,0.003119,-0.000124,0.004863,-0.003424,-0.008843,-0.010206,-0.025646,
1350,1.350,-0.008420,0.015555,-0.002678,0.006167,-0.004298,-0.009361,-0.014764,-0.021924,
1351,1.351,0.001612,0.013789,0.000355,0.007289,-0.005166,-0.008873,-0.006961,-0.009417,
1352,1.352,-0.048784,0.006098,0.003215,0.008234,-0.004508,-0.001135,-0.009977,-0.007749,
1353,1.353,0.000084,-0.000907,0.002181,0.009153,-0.006554,0.002030,-0.007231,-0.003218,
1354,1.354,0.005555,-0.009766,-0.002414,0.011749,-0.006074,-0.003228,0.002289,0.006368,
1355,1.355,-0.001239,-0.013023,0.004497,0.007390,-0.000858,-0.004079,0.001139,0.012559,
1356,1.356,0.002876,-0.012041,-0.000100,0.003535,-0.000216,-0.006633,0.004375,0.015705,
1357,1.357,0.006437,-0.012916,0.002421,0.004069,-0.001946,-0.015126,0.005422,0.018703,
1358,1.358,-0.007956,-0.024104,-0.001322,0.010857,0.002068,-0.018412,0.010010,0.019522,
1359,1.359,-0.020961,-0.025649,-0.003382,0.021027,0.000500,-0.034234,0.007489,0.020354,
1360,1.360,-0.040284,-0.010445,-0.001712,0.030531,-0.004618,-0.036507,0.006827,0.013417,
1361,1.361,-0.057911,0.003737,-0.000040,0.029200,-0.002625,-0.022344,0.000413,0.006997,
1362,1.362,-0.014116,0.009303,-0.000565,0.025842,-0.000969,-0.001911,0.001264,0.001101,
1363,1.363,-0.021784,0.010979,-0.001770,0.016232,-0.000495,0.017140,0.000586,-0.008853,
1364,1.364,-0.017215,0.006382,-0.006516,0.002238,0.000988,0.034306,-0.005860,-0.012883,
1365,1.365,-0.023656,0.004990,-0.003478,0.000253,-0.002086,0.032011,-0.006719,-0.009133,
1366,1.366,-0.010440,0.001237,-0.001791,0.001815,-0.001777,0.025835,-0.004540,0.001203,
1367,1.367,0.001595,-0.002016,0.000749,-0.012184,-0.000801,0.023852,-0.005230,0.002557,
1368,1.368,0.004367,0.001003,-0.000430,-0.025325,0.001520,0.015268,-0.002205,0.001363,
1369,1.369,0.006839,-0.003606,0.005153,-0.030512,-0.002931,0.007543,-0.006281,0.004574,
1370,1.370,-0.017236,0.002262,0.001441,-0.029103,-0.003499,0.008804,-0.001548,0.001528,
1371,1.371,-0.027088,0.005940,-0.004978,-0.038851,-0.005080,0.004996,-0.002055,-0.001182,
1372,1.372,0.007579,0.005219,-0.007508,-0.030155,-0.007330,0.005955,0.005568,-0.014041,
1373,1.373,0.020975,0.009400,0.002484,-0.035837,-0.007715,0.002876,0.002532,-0.019624,
1374,1.374,0.033248,0.007661,0.006555,-0.028651,-0.005237,0.002021,0.008972,-0.021319,
